Frequency,PSD
6.0,0.5564474354942198
6.08,0.5567763094634305
6.16,0.5574332158656505
6.24,0.5584164711718776
6.32,0.5597235489505477
6.4,0.561351078512752
6.48,0.5632948431277598
6.5600000000000005,0.5655497778349107
6.640000000000001,0.5681099668931726
6.72,0.5709686409300716
6.8,0.5741181738777145
6.88,0.5775500798154111
6.96,0.5812550098757621
7.04,0.5852227494135288
7.12,0.589442215683295
7.2,0.593901456321763
7.28,0.5985876489820275
7.36,0.6034871025186992
7.44,0.6085852601723981
7.5200000000000005,0.6138667052478746
7.6000000000000005,0.619315169819744
7.68,0.6249135470313804
7.76,0.6306439075738575
7.84,0.6364875209410226
7.92,0.6424248820520915
8.0,0.6484357438131781
8.08,0.6544991561527875
8.16,0.6605935120128696
8.24,0.6666966007063259
8.32,0.6727856689641581
8.4,0.6788374898915411
8.48,0.6848284399332877
8.56,0.6907345838172829
8.64,0.6965317673017561
8.72,0.7021957174014963
8.8,0.707702149612346
8.88,0.7130268814959805
8.96,0.7181459518316708
9.040000000000001,0.7230357443921885
9.120000000000001,0.7276731152610062
9.200000000000001,0.7320355224811347
9.28,0.7361011567158061
9.36,0.7398490715109806
9.44,0.7432593116820676
9.52,0.7463130383047387
9.6,0.7489926487739478
9.68,0.7512818904075448
9.76,0.7531659661116369
9.84,0.754631630694006
9.92,0.755667276508617
10.0,0.7562630072370393
10.08,0.7564106987593786
10.16,0.7561040462353388
10.24,0.7553385967021403
10.32,0.7541117666965208
10.4,0.7524228446189938
10.48,0.7502729777756942
10.56,0.7476651442521359
10.64,0.7446041099896916
10.72,0.7410963716452369
10.8,0.7371500860131115
10.88,0.7327749869724991
10.96,0.7279822910890306
11.040000000000001,0.7227845931439386
11.120000000000001,0.7171957529848649
11.200000000000001,0.7112307751875707
11.28,0.7049056830859329
11.36,0.6982373887680344
11.44,0.6912435606487071
11.52,0.6839424902140313
11.6,0.6763529594920918
11.68,0.6684941107382154
11.76,0.6603853197340771
11.84,0.652046073990784
11.92,0.6434958570191713
12.0,0.6347540396890425
12.08,0.6258397795461936
12.16,0.6167719287951039
12.24,0.6075689514894734
12.32,0.5982488503057125
12.4,0.5888291031091722
12.48,0.579326609362452
12.56,0.5697576462722583
12.64,0.5601378344286023
12.72,0.5504821125597593
12.8,0.5408047209102617
12.88,0.5311191926487068
12.96,0.5214383526284441
13.040000000000001,0.5117743227579461
13.120000000000001,0.5021385331891799
13.200000000000001,0.49254173850154004
13.280000000000001,0.48299403804542845
13.36,0.4735048996126543
13.44,0.4640831856194306
13.52,0.45473718102054334
13.6,0.4454746222187618
13.68,0.43630272629002165
13.76,0.42722821991052284
13.84,0.41825736744471204
13.92,0.40939599773118285
14.0,0.40064952918489716
14.08,0.39202299291682235
14.16,0.38352105365431705
14.24,0.3751480283255928
14.32,0.3669079022478095
14.4,0.3588043429293797
14.48,0.3508407115616774
14.56,0.3430200723325938
14.64,0.3353451997434347
14.72,0.32781858415102794
14.8,0.3204424357882507
14.88,0.31321868753841586
14.96,0.30614899675220353
15.040000000000001,0.2992347464003923
15.120000000000001,0.2924770458520488
15.200000000000001,0.28587673155671983
15.280000000000001,0.2794343678913469
15.36,0.27315024840896807
15.44,0.26702439769781083
15.52,0.26105657402711113
15.6,0.25524627292102225
15.68,0.24959273176536323
15.76,0.24409493551475162
15.84,0.23875162353088492
15.92,0.2335612975473066
16.0,0.22852223072279143
16.080000000000002,0.22363247771525085
16.16,0.2188898856814423
16.240000000000002,0.2142921060853093
16.32,0.2098366071798298
16.4,0.20552068701413073
16.48,0.20134148680941294
16.56,0.19729600454396132
16.64,0.19338110858904006
16.72,0.18959355124356678
16.8,0.18592998202575506
16.88,0.1823869605939759
16.96,0.17896096918637977
17.04,0.1756484244887382
17.12,0.17244568886185674
17.2,0.16934908088309075
17.28,0.16635488518024671
17.36,0.16345936155977123
17.44,0.16065875345390873
17.52,0.15794929573279434
17.6,0.15532722194662002
17.68,0.15278877107950142
17.76,0.15033019391002939
17.84,0.1479477590832974
17.92,0.1456377590051701
18.0,0.14339651567152506
18.080000000000002,0.14122038654305916
18.16,0.13910577057005982
18.240000000000002,0.13704911446144386
18.32,0.13504691927860898
18.400000000000002,0.13309574741762442
18.48,0.13119223002340916
18.56,0.12933307485742315
18.64,0.12751507461657446
18.72,0.1257351156762466
18.8,0.12399018720523744
18.88,0.1222773905757446
18.96,0.12059394896800385
19.04,0.11893721704754777
19.12,0.1173046905739133
19.2,0.11569401578363274
19.28,0.11410299837800633
19.36,0.1125296119379094
19.44,0.11097200558407926
19.52,0.10942851070217491
19.6,0.10789764655748019
19.68,0.10637812463444057
19.76,0.10486885155108754
19.84,0.10336893041756204
19.92,0.1018776605309983
20.0,0.10039453532545754
20.080000000000002,0.09891923852484032
20.16,0.0974516384780555
20.240000000000002,0.09599178068846483
20.32,0.09453987858299831
20.400000000000002,0.09309630259950671
20.48,0.09166156770316511
20.56,0.09023631947322241
20.64,0.0888213189294449
20.72,0.08741742629250701
20.8,0.08602558389381265
20.88,0.08464679846724192
20.96,0.0832821230677555
21.04,0.08193263886936647
21.12,0.08059943709756309
21.2,0.07928360134879783
21.28,0.07798619054223166
21.36,0.07670822273676556
21.44,0.07545066002979385
21.52,0.07421439473350654
21.6,0.07300023700044425
21.68,0.07180890404294898
21.76,0.07064101106177088
21.84,0.06949706396807895
21.92,0.06837745395113978
22.0,0.0672824539116946
22.080000000000002,0.0662122167492495
22.16,0.06516677546074541
22.240000000000002,0.06414604497900277
22.32,0.06314982565251569
22.400000000000002,0.062177808244027605
22.48,0.061229580304342224
22.56,0.060304633760245335
22.64,0.059402373541549605
22.72,0.05852212706220502
22.8,0.05766315436424338
22.88,0.056824658730985855
22.96,0.0560057975773364
23.04,0.055205693429912966
23.12,0.05442344481798532
23.2,0.05365813690734341
23.28,0.052908851722995316
23.36,0.052174677822522046
23.44,0.05145471929961819
23.52,0.05074810401633108
23.6,0.05005399098234602
23.68,0.04937157681988802
23.76,0.04870010127299351
23.84,0.04803885173962789
23.92,0.04738716682402306
24.0,0.04674443892432684
24.080000000000002,0.04611011588690922
24.16,0.045483701773214466
24.240000000000002,0.044864756797673655
24.32,0.044252896505778336
24.400000000000002,0.04364779026986371
24.48,0.04304915918641437
24.560000000000002,0.04245677346283415
24.64,0.04187044938363481
24.72,0.041290045946029724
24.8,0.04071546125311156
24.88,0.04014662874929579
24.96,0.03958351337776214
25.04,0.03902610773341696
25.12,0.03847442827768236
25.2,0.03792851167342667
25.28,0.037388411289836575
25.36,0.036854193918220264
25.44,0.03632593673086772
25.52,0.03580372450637023
25.6,0.035287647136431524
25.68,0.0347777974213377
25.76,0.03427426915404615
25.84,0.03377715548641812
25.92,0.03328654756554342
26.0,0.032802533423443185
26.080000000000002,0.03232519709972126
26.16,0.03185461797396254
26.240000000000002,0.03139087028283453
26.32,0.030934022795874903
26.400000000000002,0.03048413862379327
26.48,0.03004127513368308
26.560000000000002,0.029605483946745732
26.64,0.02917681099586081
26.72,0.028755296622490156
26.8,0.02834097569486199
26.88,0.02793387773204819
26.96,0.027534027021295263
27.04,0.027141442718731867
27.12,0.026756138926242106
27.2,0.026378124739798336
27.28,0.0260074042668371
27.36,0.025643976612282158
27.44,0.025287835834530294
27.52,0.024938970874128132
27.6,0.0245973654589456
27.68,0.024262997990415414
27.76,0.023935841415895536
27.84,0.02361586309240317
27.92,0.0233030246469636
28.0,0.022997281838589654
28.080000000000002,0.022698584426554275
28.16,0.02240687604914697
28.240000000000002,0.02212209411657619
28.32,0.021844169721130947
28.400000000000002,0.02157302756716016
28.48,0.021308585922948486
28.560000000000002,0.021050756596108153
28.64,0.020799444933766904
28.72,0.020554549848553188
28.8,0.020315963871204365
28.88,0.02008357323053181
28.96,0.019857257961454412
29.04,0.019636892041856445
29.12,0.019422343559102377
29.2,0.01921347490714299
29.28,0.019010143015236618
29.36,0.01881219960938508
29.44,0.018619491507592283
29.52,0.018431860950013465
29.6,0.01824914596493274
29.68,0.018071180771282044
29.76,0.01789779621809807
29.84,0.017728820260894947
29.92,0.01756407847442025
30.0,0.01740339460065919
30.080000000000002,0.017246591130298757
30.16,0.01709348991513145
30.240000000000002,0.016943912808146687
30.32,0.016797682327293825
30.400000000000002,0.01665462233817889
30.48,0.016514558750264065
30.560000000000002,0.01637732022052823
30.64,0.016242738858017428
30.72,0.016110650922314534
30.8,0.015980897508665617
30.88,0.015853325212372083
30.96,0.015727786765064533
31.04,0.01560414163563681
31.12,0.015482256588935574
31.2,0.015362006195751792
31.28,0.015243273288250094
31.36,0.01512594935567137
31.44,0.01500993487594061
31.52,0.014895139579687394
31.6,0.014781482644109117
31.68,0.0146688928150587
31.76,0.014557308456704332
31.84,0.014446677529046315
31.92,0.014336957494490522
32.0,0.014228115155533462
32.08,0.014120126426410012
32.160000000000004,0.014012976042276975
32.24,0.013906657210142719
32.32,0.013801171206325527
32.4,0.013696526925707827
32.480000000000004,0.013592740388472576
32.56,0.013489834210372266
32.64,0.013387837042897543
32.72,0.013286782989986503
32.8,0.013186711008194558
32.88,0.013087664297484123
32.96,0.01298968969007797
33.04,0.012892837045087487
33.12,0.012797158656939053
33.2,0.012702708685945916
33.28,0.012609542619722093
33.36,0.01251771677449022
33.44,0.012427287845690863
33.52,0.012338312517630116
33.6,0.012250847142174415
33.68,0.012164947496702178
33.76,0.012080668631589376
33.84,0.011998064817426754
33.92,0.011917189601890173
34.0,0.011838095985647057
34.08,0.011760836725899589
34.160000000000004,0.011685464775030064
34.24,0.011612033860346795
34.32,0.011540599209079409
34.4,0.011471218420531556
34.480000000000004,0.01140395248464268
34.56,0.011338866943176632
34.64,0.0112760331863112
34.72,0.011215529873632207
34.800000000000004,0.011157444464435767
34.88,0.011101874837908886
34.96,0.011048930979240802
35.04,0.010998736703127485
35.12,0.010951431381539102
35.2,0.010907171638184958
35.28,0.010866132967903248
35.36,0.010828511235409075
35.44,0.010794524004542401
35.52,0.010764411646549761
35.6,0.010738438174106508
35.68,0.010716891746915695
35.76,0.010700084794882013
35.84,0.010688353706211934
35.92,0.010682058030384294
36.0,0.01068157914988076
36.08,0.010687318379871458
36.160000000000004,0.010699694461782197
36.24,0.010719140424759016
36.32,0.010746099798512775
36.4,0.010781022171720252
36.480000000000004,0.010824358102029363
36.56,0.010876553396549879
36.64,0.010938042795358944
36.72,0.011009243104760612
36.800000000000004,0.011090545841563725
36.88,0.011182309464191752
36.96,0.01128485128069226
37.04,0.01139843913735377
37.12,0.01152328300431765
37.2,0.011659526585929256
37.28,0.011807239093293192
37.36,0.011966407324219639
37.44,0.01213692820118552
37.52,0.012318601920795383
37.6,0.012511125868275415
37.68,0.012714089447586448
37.76,0.012926969971657166
37.84,0.013149129747946848
37.92,0.013379814482064505
38.0,0.013618153106540812
38.08,0.013863159123263628
38.160000000000004,0.014113733526737058
38.24,0.014368669351541439
38.32,0.014626657861523635
38.4,0.014886296370779485
38.480000000000004,0.015146097657921399
38.56,0.01540450090598975
38.64,0.015659884071288203
38.72,0.015910577555992865
38.800000000000004,0.01615487903226163
38.88,0.01639106924034616
38.96,0.016617428560537623
39.04,0.016832254139159227
39.12,0.017033877332840987
39.2,0.017220681223362844
39.28,0.01739111794782979
39.36,0.017543725586108873
39.44,0.01767714434947612
39.52,0.017790131821365147
39.6,0.017881577012910217
39.68,0.01795051301247837
39.76,0.017996128029291618
39.84,0.018017774656191594
39.92,0.018014977205062652
40.0,0.0179874369998872
40.08,0.017935035546160917
40.160000000000004,0.01785783553077141
40.24,0.017756079642686058
40.32,0.017630187241134264
40.4,0.01748074893364021
40.480000000000004,0.017308519160527353
40.56,0.01711440691463067
40.64,0.016899464754305066
40.72,0.01666487629377243
40.800000000000004,0.016411942376959133
40.88,0.016142066158779132
40.96,0.01585673733108086
41.04,0.015557515738947137
41.12,0.0152460146367236
41.2,0.01492388383200876
41.28,0.014592792960106621
41.36,0.014254415121312614
41.44,0.01391041109926525
41.52,0.013562414360863768
41.6,0.013212017017434387
41.68,0.012860756903480368
41.76,0.012510105904068015
41.84,0.012161459635274197
41.92,0.011816128554819776
42.0,0.011475330552576497
42.08,0.011140185043700089
42.160000000000004,0.010811708561227883
42.24,0.010490811820557281
42.32,0.010178298205769761
42.4,0.00987486360758802
42.480000000000004,0.009581097525176878
42.56,0.009297485329223552
42.64,0.009024411571875581
42.72,0.008762164220256899
42.800000000000004,0.008510939684388538
42.88,0.008270848507337898
42.96,0.008041921585151005
43.04,0.007824116786413947
43.12,0.007617325845859749
43.2,0.007421381413053115
43.28,0.00723606414550423
43.36,0.007061109745286251
43.44,0.006896215849032665
43.52,0.00674104869272146
43.6,0.006595249484631113
43.68,0.0064584404319397055
43.76,0.006330230378385569
43.84,0.006210220021951344
43.92,0.00609800669243374
44.0,0.0059931886788834165
44.08,0.005895369106020442
44.160000000000004,0.005804159366792037
44.24,0.005719182125138653
44.32,0.00564007390870422
44.4,0.005566487315693007
44.480000000000004,0.005498092863316919
44.56,0.005434580507346952
44.64,0.005375660863259921
44.72,0.005321066159413119
44.800000000000004,0.005270550951716538
44.88,0.0052238926274975755
44.96,0.005180891723803238
45.04,0.005141372082394348
45.12,0.005105180860272658
45.2,0.00507218841090667
45.28,0.005042288047491083
45.36,0.005015395695744471
45.44,0.004991449440019738
45.52,0.004970408963001632
45.6,0.0049522548760922575
45.68,0.004936987934843519
45.76,0.0049246281315452195
45.84,0.004915213655418034
45.92,0.004908799709811276
46.0,0.00490545717544138
46.08,0.004905271109019943
46.160000000000004,0.00490833906764721
46.24,0.00491476925105809
46.32,0.004924678456196749
46.4,0.004938189841621988
46.480000000000004,0.004955430502841434
46.56,0.004976528863790755
46.64,0.005001611894218522
46.72,0.005030802167614642
46.800000000000004,0.0050642147794206956
46.88,0.005101954150483565
46.96,0.005144110745896793
47.04,0.0051907577444335225
47.12,0.005241947698524079
47.2,0.005297709229076467
47.28,0.005358043803209891
47.36,0.005422922646067044
47.44,0.005492283840143261
47.52,0.005566029666925765
47.6,0.005644024245981538
47.68,0.005726091525858953
47.76,0.005812013679271175
47.84,0.005901529951921041
47.92,0.005994336010036062
48.0,0.006090083826221435
48.08,0.006188382136635764
48.160000000000004,0.006288797494867684
48.24,0.006390855939297311
48.32,0.0064940452813477476
48.4,0.006597818011989005
48.480000000000004,0.0067015948133606305
48.56,0.006804768651614435
48.64,0.006906709416271781
48.72,0.00700676906077188
48.800000000000004,0.007104287188681186
48.88,0.007198597020481225
48.96,0.007289031667189489
49.04,0.007374930629480813
49.120000000000005,0.007455646434698666
49.2,0.007530551319319661
49.28,0.007599043861221417
49.36,0.0076605554646091804
49.44,0.007714556600746745
49.52,0.007760562709763132
49.6,0.007798139672729638
49.68,0.00782690876891378
49.76,0.00784655104047417
49.84,0.007856810995777192
49.92,0.007857499592790126
50.0,0.007848496455451284
50.08,0.007829751288288157
50.160000000000004,0.007801284467616586
50.24,0.0077631868011131255
50.32,0.007715618461141133
50.4,0.0076588071106516165
50.480000000000004,0.007593045253479758
50.56,0.007518686853157271
50.64,0.007436143275726913
50.72,0.007345878622217628
50.800000000000004,0.007248404525276291
50.88,0.007144274491741043
50.96,0.007034077878606132
51.04,0.006918433593760438
51.120000000000005,0.006797983615046514
51.2,0.006673386421598947
51.28,0.006545310430104874
51.36,0.006414427525669956
51.44,0.006281406772495248
51.52,0.006146908383699232
51.6,0.006011578022548716
51.68,0.005876041499262123
51.76,0.005740899918646215
51.84,0.005606725324323984
51.92,0.005474056875436929
52.0,0.005343397581670699
52.08,0.005215211612480076
52.160000000000004,0.005089922186662394
52.24,0.004967910039140721
52.32,0.0048495124531314215
52.4,0.004735022837919212
52.480000000000004,0.004624690825359981
52.56,0.004518722852078641
52.64,0.004417283189172526
52.72,0.004320495377112578
52.800000000000004,0.004228444020462855
52.88,0.004141176895012446
52.96,0.004058707318859425
53.04,0.0039810167389047
53.120000000000005,0.003908057484975076
53.2,0.003839755645353997
53.28,0.003776014019739307
53.36,0.003716715108468419
53.44,0.0036617241001521156
53.52,0.0036108918235085424
53.6,0.0035640576331131407
53.68,0.0035210522028279734
53.76,0.003481700204792967
53.84,0.0034458228559141853
53.92,0.0034132403177250916
54.0,0.003383773939219267
54.08,0.0033572483357182823
54.160000000000004,0.003333493299981613
54.24,0.003312345544541793
54.32,0.003293650276642761
54.4,0.003277262609133857
54.480000000000004,0.0032630488122364497
54.56,0.003250887412237051
54.64,0.0032406701438971244
54.72,0.0032323027637087874
54.800000000000004,0.0032257057311043487
54.88,0.0032208147643710524
54.96,0.003217581277369946
55.04,0.003215972702252032
