Frequency,PSD
6.0,0.3446889034510356
6.08,0.344833738454301
6.16,0.3451348148279626
6.24,0.3456137606944165
6.32,0.34630009603707795
6.4,0.3472278620647502
6.48,0.34843142128940047
6.5600000000000005,0.34994078664964634
6.640000000000001,0.3517770026600976
6.72,0.3539482441124445
6.8,0.3564473690243277
6.88,0.35925161596387845
6.96,0.3623249418806313
7.04,0.36562315406454743
7.12,0.36910153314888183
7.2,0.37272414193755554
7.28,0.37647356073891924
7.36,0.38035948442027623
7.44,0.38442454511420393
7.5200000000000005,0.3887459361000734
7.6000000000000005,0.39343190284404606
7.68,0.39861287476175405
7.76,0.4044278247491018
7.84,0.4110072229327111
7.92,0.41845455652638475
8.0,0.42682870936057327
8.08,0.4361294764751722
8.16,0.4462881396065341
8.24,0.4571644169183149
8.32,0.46855033482251945
8.4,0.48018077556099026
8.48,0.49174974258180787
8.56,0.5029308342731257
8.64,0.5134000611697052
8.72,0.5228589814616793
8.8,0.531056141648101
8.88,0.5378049663490265
8.96,0.5429965254920442
9.040000000000001,0.5466060126425005
9.120000000000001,0.5486922941617441
9.200000000000001,0.5493905233224531
9.28,0.5488985175764417
9.36,0.5474582961357056
9.44,0.5453347632794893
9.52,0.5427938839274278
9.6,0.5400827357790665
9.68,0.5374134933261921
9.76,0.5349527359227814
9.84,0.5328165875966302
9.92,0.5310712640836212
10.0,0.5297378178062104
10.08,0.5287994010933869
10.16,0.5282093047310156
10.24,0.5278983641343191
10.32,0.5277809483587826
10.4,0.5277594739016215
10.48,0.5277280087501208
10.56,0.527575879519822
10.64,0.5271921748600037
10.72,0.5264716669253832
10.8,0.5253220651966035
10.88,0.5236718549636802
10.96,0.5214774524984416
11.040000000000001,0.5187281870348319
11.120000000000001,0.515447772552997
11.200000000000001,0.5116914388221697
11.28,0.5075386417002379
11.36,0.5030821007786876
11.44,0.4984146374994247
11.52,0.49361575668687213
11.6,0.4887400368954065
11.68,0.4838091525963121
11.76,0.478808798076761
11.84,0.47369102724534107
11.92,0.468381702307665
12.0,0.46279199601913024
12.08,0.45683233334738793
12.16,0.45042686622648254
12.24,0.4435265790659229
12.32,0.4361194034557378
12.4,0.4282362164190867
12.48,0.4199522159059985
12.56,0.4113838045966469
12.64,0.4026816674154338
12.72,0.3940211195670706
12.8,0.38559098449215895
12.88,0.3775822292677642
12.96,0.37017737182700583
13.040000000000001,0.36354134312112973
13.120000000000001,0.3578141170003071
13.200000000000001,0.3531050895496748
13.280000000000001,0.3494889604838448
13.36,0.34700277770413634
13.44,0.34564385596999064
13.52,0.34536844471135963
13.6,0.34609124709398614
13.68,0.3476861179217051
13.76,0.34998842652165796
13.84,0.3527996092123084
13.92,0.3558943241145415
14.0,0.3590303590348867
14.08,0.3619610634531829
14.16,0.36444963927833074
14.24,0.366284211410895
14.32,0.36729229128934704
14.4,0.3673531142135802
14.48,0.3664064154130397
14.56,0.3644565130080088
14.64,0.36157105016892344
14.72,0.35787434250984246
14.8,0.3535358898171689
14.88,0.3487551528292466
14.96,0.3437440920009726
15.040000000000001,0.3387091710695357
15.120000000000001,0.33383453222248033
15.200000000000001,0.3292678700558741
15.280000000000001,0.3251102072825112
15.36,0.321410354810635
15.44,0.3181643708964058
15.52,0.31531986171172066
15.6,0.31278452556893466
15.68,0.3104379672940545
15.76,0.30814552735142
15.84,0.3057727091124133
15.92,0.3031987679122836
16.0,0.300328156216417
16.080000000000002,0.29709879153256
16.16,0.29348649792153864
16.240000000000002,0.28950541913967637
16.32,0.2852046507138417
16.4,0.28066172810043666
16.48,0.27597388871850326
16.56,0.2712481687737075
16.64,0.2665913989616112
16.72,0.26210104756130415
16.8,0.2578576621045934
16.88,0.2539194236814638
16.96,0.2503190875159477
17.04,0.24706336384267158
17.12,0.2441346043275976
17.2,0.24149450042016382
17.28,0.23908936579158724
17.36,0.2368564626284664
17.44,0.23473074552460133
17.52,0.23265134967633228
17.6,0.23056715938819944
17.68,0.228440874169499
17.76,0.22625114957964435
17.84,0.22399262043714532
17.92,0.22167389032838727
18.0,0.21931385463433456
18.080000000000002,0.21693696811097296
18.16,0.2145682277810575
18.240000000000002,0.21222868442109757
18.32,0.2099322075230596
18.400000000000002,0.20768401895894784
18.48,0.2054812120703099
18.56,0.20331513524103037
18.64,0.20117520017411145
18.72,0.1990534305319463
18.8,0.19694893877132502
18.88,0.1948715293417766
18.96,0.19284377131466982
19.04,0.19090113513905627
19.12,0.18909010001911636
19.2,0.18746445422679184
19.28,0.18608027573268113
19.36,0.18499025206136493
19.44,0.18423805342965158
19.52,0.18385341284116863
19.6,0.18384841391200146
19.68,0.18421528069971432
19.76,0.18492574883222568
19.84,0.18593191446139373
19.92,0.18716833422476747
20.0,0.18855509423534586
20.080000000000002,0.19000156959123274
20.16,0.19141063534633948
20.240000000000002,0.19268313799290823
20.32,0.19372247035635898
20.400000000000002,0.19443910068241166
20.48,0.19475489061826695
20.56,0.19460701012060344
20.64,0.19395123862520539
20.72,0.19276444726048445
20.8,0.19104609403929768
20.88,0.18881862907373226
20.96,0.18612678652731915
21.04,0.18303581638346192
21.12,0.17962876648562853
21.2,0.1760029558019136
21.28,0.17226578594479297
21.36,0.16853003116465745
21.44,0.1649087433960619
21.52,0.16150992296776284
21.6,0.15843114465386032
21.68,0.15575438978111075
21.76,0.15354140453428147
21.84,0.15182996130768167
21.92,0.15063142045695035
22.0,0.1499299542297155
22.080000000000002,0.14968369212530172
22.16,0.14982787933481026
22.240000000000002,0.15027992323422779
22.32,0.15094596587342202
22.400000000000002,0.15172840044341435
22.48,0.15253358665251526
22.56,0.15327894845552903
22.64,0.1538986795419198
22.72,0.15434744055684316
22.8,0.15460168892559206
22.88,0.1546585993048804
22.96,0.15453285841459516
23.04,0.15425189679590764
23.12,0.15385030386078555
23.2,0.15336423109949315
23.28,0.15282651538500203
23.36,0.15226306922878916
23.44,0.15169082767125464
23.52,0.1511172639414281
23.6,0.15054124006389052
23.68,0.149954785700854
23.76,0.14934532206766968
23.84,0.14869787007524948
23.92,0.14799688608966605
24.0,0.1472275244896725
24.080000000000002,0.1463762972231997
24.16,0.14543125205906138
24.240000000000002,0.144381895963051
24.32,0.1432191318770089
24.400000000000002,0.14193545236418606
24.48,0.14052554998799746
24.560000000000002,0.1389873794916545
24.64,0.13732356529866072
24.72,0.1355429174290498
24.8,0.13366172686229613
24.88,0.13170447981650524
24.96,0.12970367199344734
25.04,0.12769851819529365
25.12,0.12573252492576223
25.2,0.12385009542188724
25.28,0.12209253089693768
25.36,0.1204939395847387
25.44,0.11907763376735422
25.52,0.11785356550884679
25.6,0.11681722420812998
25.68,0.11595021278886755
25.76,0.1152224698161409
25.84,0.11459585631128867
25.92,0.11402862248230225
26.0,0.11348014587531982
26.080000000000002,0.11291530788833735
26.16,0.11230795099374469
26.240000000000002,0.1116430177197266
26.32,0.1109171845289584
26.400000000000002,0.11013803229631239
26.48,0.1093220029717684
26.560000000000002,0.10849154780442404
26.64,0.10767195489705583
26.72,0.10688834410592027
26.8,0.10616323972191091
26.88,0.10551499220634125
26.96,0.10495714505836251
27.04,0.10449866271046618
27.12,0.10414478199281749
27.2,0.10389815054026662
27.28,0.10375988849415312
27.36,0.10373025972888765
27.44,0.10380875549094724
27.52,0.10399355292844811
27.6,0.10428048005655056
27.68,0.10466176070414064
27.76,0.10512489596218678
27.84,0.10565204236574811
27.92,0.10622016786199251
28.0,0.10680211890334232
28.080000000000002,0.10736854548623366
28.16,0.10789044460071107
28.240000000000002,0.10834193625325117
28.32,0.10870281213324591
28.400000000000002,0.10896041250293463
28.48,0.10911049077397039
28.560000000000002,0.10915689782856441
28.64,0.1091101255071912
28.72,0.10898494979293313
28.8,0.10879756961877138
28.88,0.10856271724736126
28.96,0.1082912069866638
29.04,0.10798829515549717
29.12,0.10765306720691051
29.2,0.10727888118340206
29.28,0.10685471807848568
29.36,0.10636715326512142
29.44,0.10580259202283233
29.52,0.10514941405406243
29.6,0.10439973823685286
29.68,0.10355062798825221
29.76,0.10260468045841481
29.84,0.10157005033642583
29.92,0.10046002937707371
30.0,0.09929232586672776
30.080000000000002,0.09808816774221012
30.16,0.09687130417685944
30.240000000000002,0.09566692499841636
30.32,0.09450047718444801
30.400000000000002,0.09339634842464521
30.48,0.09237641410495556
30.560000000000002,0.09145849878623519
30.64,0.09065486925194194
30.72,0.08997093168258963
30.8,0.08940433038010127
30.88,0.08894462728768182
30.96,0.08857367937539219
31.04,0.0882667358501895
31.12,0.08799416933767473
31.2,0.08772365868148405
31.28,0.08742257719763391
31.36,0.08706032227208718
31.44,0.08661035182638775
31.52,0.08605176065801412
31.6,0.08537031685548299
31.68,0.0845589640594227
31.76,0.08361786052451199
31.84,0.08255405924531573
31.92,0.08138093303189611
32.0,0.08011742180466624
32.08,0.07878714029998463
32.160000000000004,0.0774173485336077
32.24,0.07603776782004726
32.32,0.07467922890713748
32.4,0.07337216537877267
32.480000000000004,0.0721450076434994
32.56,0.07102257894555368
32.64,0.07002463222185962
32.72,0.06916468469570058
32.8,0.06844929961491303
32.88,0.06787793058339373
32.96,0.06744338754720028
33.04,0.06713291246651683
33.12,0.06692977693296405
33.2,0.06681524393509464
33.28,0.06677068140078445
33.36,0.06677958420704481
33.44,0.06682925983355915
33.52,0.06691196342951056
33.6,0.06702532958879188
33.68,0.06717203495657027
33.76,0.06735872773413629
33.84,0.06759436321463606
33.92,0.06788817265553133
34.0,0.06824755074155611
34.08,0.0686761630886147
34.160000000000004,0.06917254476264365
34.24,0.06972938698733568
34.32,0.0703336036595342
34.4,0.07096714983989993
34.480000000000004,0.07160845173859762
34.56,0.07223422123718054
34.64,0.07282138182152495
34.72,0.07334883319411765
34.800000000000004,0.07379882627202804
34.88,0.07415779851431512
34.96,0.07441661612363164
35.04,0.07457026732303604
35.12,0.0746171337105592
35.2,0.07455802266851419
35.28,0.07439516634296968
35.36,0.07413138084394989
35.44,0.07376953709379624
35.52,0.07331243006081485
35.6,0.0727630563378816
35.68,0.07212523269809389
35.76,0.07140442182886453
35.84,0.07060858606397238
35.92,0.06974887324362805
36.0,0.06883995478777905
36.08,0.06789988394651289
36.160000000000004,0.06694941610010437
36.24,0.06601082213763096
36.32,0.06510631593653388
36.4,0.06425629196886112
36.480000000000004,0.06347761469068242
36.56,0.0627822076512346
36.64,0.062176153990523016
36.72,0.06165944591716515
36.800000000000004,0.06122642107660241
36.88,0.06086681597551616
36.96,0.060567270303688026
37.04,0.060313048578481895
37.12,0.0600897189571483
37.2,0.059884547318015895
37.28,0.059687423252465316
37.36,0.05949122155796578
37.44,0.05929160168658966
37.52,0.05908634076636264
37.6,0.05887436794402314
37.68,0.05865470842889499
37.76,0.05842555041890095
37.84,0.05818361877495985
37.92,0.05792398245751948
38.0,0.05764034804022224
38.08,0.05732581009098372
38.160000000000004,0.05697395178294
38.24,0.05658012566131575
38.32,0.05614270336304934
38.4,0.055664070567471746
38.480000000000004,0.05515116326694919
38.56,0.054615393913606404
38.64,0.054071897169471986
38.72,0.053538126033165434
38.800000000000004,0.05303193649676555
38.88,0.052569395655634246
38.96,0.052162616525890486
39.04,0.051817947441938225
39.12,0.05153481570175805
39.2,0.051305444030427694
39.28,0.05111553462146596
39.36,0.050945868392692925
39.44,0.05077462199278396
39.52,0.05058008833033362
39.6,0.050343419754174425
39.68,0.05005100902161061
39.76,0.04969618237081863
39.84,0.049279989803760506
39.92,0.04881101906543398
40.0,0.048304305927025656
40.08,0.04777953903650538
40.160000000000004,0.04725884318115395
40.24,0.046764459636858824
40.32,0.04631662571591472
40.4,0.04593189593987397
40.480000000000004,0.04562205887904727
40.56,0.04539370367771436
40.64,0.045248394987072595
40.72,0.04518333763302347
40.800000000000004,0.04519236149964237
40.88,0.04526703664006161
40.96,0.045397737977958194
41.04,0.0455745139598766
41.12,0.04578766719610326
41.2,0.04602801854335757
41.28,0.046286889200220005
41.36,0.0465558881661373
41.44,0.04682662615807949
41.52,0.04709048589992665
41.6,0.04733856082267198
41.68,0.04756183270260613
41.76,0.04775160135644614
41.84,0.04790011741892647
41.92,0.04800131505532329
42.0,0.04805150665097964
42.08,0.04804989389383704
42.160000000000004,0.0479987716539015
42.24,0.04790334905887348
42.32,0.047771177186515315
42.4,0.04761124232453871
42.480000000000004,0.04743284434457529
42.56,0.04724441982402336
42.64,0.04705248177678298
42.72,0.04686083048359374
42.800000000000004,0.046670146959275016
42.88,0.04647802071815979
42.96,0.04627939796344031
43.04,0.04606737653942483
43.12,0.0458342292335355
43.2,0.045572512901051875
43.28,0.04527611877926292
43.36,0.044941136851087846
43.44,0.04456643922281253
43.52,0.04415392811701768
43.6,0.043708437399226335
43.68,0.043237317748339874
43.76,0.042749771088514424
43.84,0.042256027141755775
43.92,0.04176647187633398
44.0,0.04129084237605789
44.08,0.04083759370235683
44.160000000000004,0.04041351994283232
44.24,0.04002367470479459
44.32,0.03967158900156387
44.4,0.039359732600266845
44.480000000000004,0.03909011651950729
44.56,0.03886489868091589
44.64,0.0386868403108272
44.72,0.03855947351063389
44.800000000000004,0.0384868819978272
44.88,0.0384730633804379
44.96,0.03852092294631335
45.04,0.038631031973121864
45.12,0.03880035211111857
45.2,0.03902116655155785
45.28,0.0392804576663429
45.36,0.0395599254683479
45.44,0.03983675558878244
45.52,0.04008513149507312
45.6,0.0402783616543696
45.68,0.040391379746434954
45.76,0.04040329560389269
45.84,0.040299642414115294
45.92,0.04007399008715607
46.0,0.03972867409210031
46.08,0.03927451221646476
46.160000000000004,0.038729529304226906
46.24,0.03811685802291356
46.32,0.03746210751172989
46.4,0.036790570625929435
46.480000000000004,0.03612466123123521
46.56,0.03548193234554123
46.64,0.03487393106330153
46.72,0.03430601340600122
46.800000000000004,0.0337780938496618
46.88,0.03328616458442713
46.96,0.032824310491730575
47.04,0.0323868832187902
47.12,0.031970488926939544
47.2,0.03157548744989986
47.28,0.03120678576442857
47.36,0.03087382021491228
47.44,0.030589741712069823
47.52,0.030369928697738923
47.6,0.03023003983485791
47.68,0.03018387274608362
47.76,0.03024131255841902
47.84,0.030406635252475615
47.92,0.03067738054815824
48.0,0.031043934848187116
48.08,0.031489876075902465
48.160000000000004,0.031993039627263756
48.24,0.03252717894025879
48.32,0.0330640255911938
48.4,0.03357551087591923
48.480000000000004,0.034035899117305785
48.56,0.034423604014612655
48.64,0.034722510084630606
48.72,0.034922693937588636
48.800000000000004,0.03502052354333915
48.88,0.035018194834672556
48.96,0.03492283160948065
49.04,0.034745317187348676
49.120000000000005,0.03449903956809562
49.2,0.03419871603136938
49.28,0.03385942316583907
49.36,0.03349590281918329
49.44,0.03312215388155056
49.52,0.032751264596532915
49.6,0.03239539899986904
49.68,0.03206583003587053
49.76,0.03177291336025788
49.84,0.03152591872900805
49.92,0.03133267590242818
50.0,0.03119904228646786
50.08,0.03112825150989219
50.160000000000004,0.031120246602301064
50.24,0.031171129851730837
50.32,0.03127286725186317
50.4,0.031413365468318466
50.480000000000004,0.03157699449850482
50.56,0.0317455653345077
50.64,0.03189969877595644
50.72,0.03202045163596037
50.800000000000004,0.03209101304667189
50.88,0.03209825746194546
50.96,0.03203394883325783
51.04,0.03189543266877261
51.120000000000005,0.031685723001588215
51.2,0.031412977791757446
51.28,0.031089443758179156
51.36,0.030730024681976463
51.44,0.030350673441648095
51.52,0.029966820518607263
51.6,0.029592030226929158
51.68,0.0292370266122629
51.76,0.028909164626651628
51.84,0.028612351682924003
51.92,0.028347362179244093
52.0,0.028112442206831116
52.08,0.027904078206695375
52.160000000000004,0.027717802060754526
52.24,0.027548922452504787
52.32,0.027393102412566768
52.4,0.027246739081596548
52.480000000000004,0.027107137714193257
52.56,0.026972503011392944
52.64,0.026841793862107256
52.72,0.026714500893207503
52.800000000000004,0.026590409503028725
52.88,0.026469404847169267
52.96,0.026351360895562507
53.04,0.026236135276485714
53.120000000000005,0.026123668029999485
53.2,0.02601415915563899
53.28,0.02590828085761726
53.36,0.025807369324364282
53.44,0.025713540366998536
53.52,0.025629684141713516
53.6,0.025559315081615547
53.68,0.025506280381981078
53.76,0.02547435856145156
53.84,0.025466802841468676
53.92,0.025485897251005675
54.0,0.025532593484342413
54.08,0.02560628354310337
54.160000000000004,0.025704739992617083
54.24,0.02582422743430115
54.32,0.02595976165903654
54.4,0.026105472413823945
54.480000000000004,0.026255015368328756
54.56,0.02640197963737597
54.64,0.02654024741992892
54.72,0.026664278408297715
54.800000000000004,0.0267693093372927
54.88,0.02685147455491808
54.96,0.026907864237547072
55.04,0.026936541832884714
