Frequency,PSD
6.057142857142857,0.09044688560254732
6.171428571428571,0.0908129756530672
6.285714285714286,0.09150337755095911
6.3999999999999995,0.09244501162979395
6.514285714285714,0.09355146505515737
6.628571428571428,0.09474339326985451
6.742857142857143,0.09596577370441131
6.857142857142857,0.09719762956599014
6.9714285714285715,0.09845240508379897
7.085714285714285,0.09977031938358624
7.2,0.1012067791477872
7.314285714285714,0.10282242044091326
7.428571428571428,0.10468007909182951
7.542857142857143,0.10685197869346434
7.657142857142857,0.10943720349084517
7.771428571428571,0.11258595930933665
7.885714285714285,0.11652417749824429
8.0,0.12157047750303933
8.114285714285714,0.12813781581820993
8.228571428571428,0.1367143270218292
8.342857142857143,0.14782151968574422
8.457142857142857,0.16195244510651996
8.571428571428571,0.1794968832460916
8.685714285714285,0.20066416826412511
8.799999999999999,0.22541631629339587
8.914285714285715,0.25342413780051604
9.028571428571428,0.2840567770304316
9.142857142857142,0.31641066238747134
9.257142857142856,0.3493775673802491
9.371428571428572,0.3817442218597954
9.485714285714286,0.4123090374970457
9.6,0.43999675581338593
9.714285714285714,0.46395088480289737
9.828571428571427,0.483587658215289
9.942857142857143,0.49860359231619716
10.057142857142857,0.5089395982138387
10.17142857142857,0.5147149122789798
10.285714285714285,0.5161505639677731
10.4,0.5135025924892831
10.514285714285714,0.5070197339182998
10.628571428571428,0.49693099660924467
10.742857142857142,0.48345889339162923
10.857142857142858,0.4668474080009641
10.971428571428572,0.44739183954388817
11.085714285714285,0.4254602072703235
11.2,0.401500949706466
11.314285714285713,0.37603669938520945
11.428571428571429,0.34964708307492903
11.542857142857143,0.32294425817641514
11.657142857142857,0.2965440005167489
11.77142857142857,0.2710339712737051
11.885714285714286,0.24694044766597945
12.0,0.2246956424077834
12.114285714285714,0.2046092323717044
12.228571428571428,0.18684884838447738
12.342857142857142,0.17143410907751994
12.457142857142857,0.15824693646049365
12.571428571428571,0.1470577395792278
12.685714285714285,0.13756355851313665
12.799999999999999,0.12943158347429418
12.914285714285715,0.12234049422577194
13.028571428571428,0.11601308357604116
13.142857142857142,0.11023621535104547
13.257142857142856,0.10486739555433487
13.371428571428572,0.09983005868211581
13.485714285714286,0.09510132864406234
13.6,0.09069628036621408
13.714285714285714,0.0866519115980774
13.828571428571427,0.08301274975555084
13.942857142857143,0.0798188732345182
14.057142857142857,0.0770964741382263
14.17142857142857,0.07485095124250127
14.285714285714285,0.07306267555272121
14.4,0.07168572173618999
14.514285714285714,0.07064979768116722
14.628571428571428,0.0698652830936325
14.742857142857142,0.06923080742112836
14.857142857142856,0.06864233965486669
14.971428571428572,0.0680025053992807
15.085714285714285,0.06722888952315537
15.2,0.06626040509970858
15.314285714285713,0.06506127592638046
15.428571428571429,0.06362259994966955
15.542857142857143,0.06196168395281815
15.657142857142857,0.060119341928868
15.77142857142857,0.058155253990394104
15.885714285714284,0.05614148820097778
16.0,0.054154534824315065
16.114285714285714,0.052266659108544875
16.228571428571428,0.05053782785344101
16.34285714285714,0.049009618207296435
16.457142857142856,0.04770219365484138
16.57142857142857,0.04661469131148882
16.685714285714287,0.045728499856221676
16.8,0.045012294971154346
16.914285714285715,0.04442758864944187
17.02857142857143,0.04393392278292305
17.142857142857142,0.04349342607387026
17.257142857142856,0.043074893630117544
17.37142857142857,0.04265759242676582
17.485714285714284,0.042234643748107266
17.599999999999998,0.041815324006898684
17.714285714285715,0.04142529445403383
17.82857142857143,0.0411038720176065
17.942857142857143,0.04089803529834433
18.057142857142857,0.040853750374789534
18.17142857142857,0.04100609703121319
18.285714285714285,0.04137026835644576
18.4,0.041935596350567664
18.514285714285712,0.04266426573578231
18.628571428571426,0.04349541225619257
18.742857142857144,0.04435407680694546
18.857142857142858,0.045163294995690675
18.97142857142857,0.04585675218654732
19.085714285714285,0.04638917904656193
19.2,0.04674211985043705
19.314285714285713,0.04692380180431806
19.428571428571427,0.04696329948917034
19.54285714285714,0.0469006244435732
19.657142857142855,0.046775365551664894
19.771428571428572,0.04661677478204327
19.885714285714286,0.046437669182883064
20.0,0.046233379825732855
20.114285714285714,0.045985576581671544
20.228571428571428,0.04566954705589468
20.34285714285714,0.04526274579633076
20.457142857142856,0.04475231883526172
20.57142857142857,0.04413980495788592
20.685714285714287,0.04344210719819344
20.8,0.04268882484921113
20.914285714285715,0.041916867846006914
21.02857142857143,0.041163768244231125
21.142857142857142,0.04046120770199595
21.257142857142856,0.039830048770071305
21.37142857142857,0.039277701850710146
21.485714285714284,0.03879810183715774
21.599999999999998,0.03837401966709075
21.714285714285715,0.03798098870612576
21.82857142857143,0.03759186232436155
21.942857142857143,0.03718099012652346
22.057142857142857,0.036727212944622147
22.17142857142857,0.036215274374551076
22.285714285714285,0.03563571400036084
22.4,0.03498370430756583
22.514285714285712,0.03425750533446293
22.628571428571426,0.03345719201464598
22.742857142857144,0.0325840924738219
22.857142857142858,0.03164105292078442
22.97142857142857,0.030633325784354733
23.085714285714285,0.029569653096108428
23.2,0.028463039015734798
23.314285714285713,0.02733078460047436
23.428571428571427,0.026193568431764847
23.54285714285714,0.025073641470692604
23.657142857142855,0.023992483635766608
23.771428571428572,0.02296845712829426
23.885714285714286,0.022015022042246993
24.0,0.021139935941881655
24.114285714285714,0.020345584753235155
24.228571428571428,0.019630280067138274
24.34285714285714,0.018990113079979234
24.457142857142856,0.01842085286479541
24.57142857142857,0.01791943243737293
24.685714285714283,0.01748473673533156
24.8,0.01711761566811438
24.914285714285715,0.0168202209463227
25.02857142857143,0.016594869468159253
25.142857142857142,0.016442672068122444
25.257142857142856,0.016362164530427638
25.37142857142857,0.01634816864553025
25.485714285714284,0.016391104358090314
25.599999999999998,0.016476952909958206
25.71428571428571,0.016588005475872213
25.82857142857143,0.016704403257372713
25.942857142857143,0.016806295945970044
26.057142857142857,0.016876264156600287
26.17142857142857,0.016901535309154146
26.285714285714285,0.016875527782234445
26.4,0.016798400888881355
26.514285714285712,0.016676531198610536
26.628571428571426,0.01652110029146226
26.742857142857144,0.01634617621449627
26.857142857142858,0.016166738002377487
26.97142857142857,0.01599701802268399
27.085714285714285,0.015849362317320755
27.2,0.015733609189329315
27.314285714285713,0.015656836304161346
27.428571428571427,0.015623273153566737
27.54285714285714,0.015634222530097455
27.657142857142855,0.01568794672941841
27.771428571428572,0.01577959606489762
27.885714285714286,0.015901335340086052
28.0,0.01604282444764994
28.114285714285714,0.01619212755463083
28.228571428571428,0.01633698588013863
28.34285714285714,0.016466238469338246
28.457142857142856,0.016571069738824058
28.57142857142857,0.01664575090015711
28.685714285714283,0.016687648533232145
28.8,0.016696482391892503
28.914285714285715,0.016673068748620623
29.02857142857143,0.016617998911266307
29.142857142857142,0.016530787531133198
29.257142857142856,0.016409927783252648
29.37142857142857,0.016254016672025803
29.485714285714284,0.01606373727615931
29.599999999999998,0.015844127835124996
29.71428571428571,0.015606360499662329
29.82857142857143,0.015368286173714496
29.942857142857143,0.015153290546299143
30.057142857142857,0.014987476424612995
30.17142857142857,0.01489569665628879
30.285714285714285,0.014897345227709738
30.4,0.015002940139657105
30.514285714285712,0.015212350178676295
30.628571428571426,0.01551508040026743
30.74285714285714,0.015892476157436088
30.857142857142858,0.01632120977032758
30.97142857142857,0.016777130201862455
31.085714285714285,0.017238559131472597
31.2,0.017688380373402892
31.314285714285713,0.018114683398361073
31.428571428571427,0.018510139699718656
31.54285714285714,0.018870587929343114
31.657142857142855,0.019193416690906743
31.77142857142857,0.01947626959594977
31.885714285714286,0.019716412402148144
32.0,0.01991086939319317
32.114285714285714,0.020057216491977524
32.22857142857143,0.02015475069508334
32.34285714285714,0.02020566068079809
32.457142857142856,0.020215814408266843
32.57142857142857,0.020194861528471147
32.68571428571428,0.020155512460782798
32.8,0.02011207003316876
32.91428571428571,0.020078498717917195
33.028571428571425,0.02006645682705234
33.14285714285714,0.020083739103312143
33.25714285714285,0.020133467518397254
33.371428571428574,0.02021415790540778
33.48571428571429,0.020320545815413725
33.6,0.02044485555317783
33.714285714285715,0.02057810569006604
33.82857142857143,0.020711090276724353
33.94285714285714,0.020834840260528342
34.05714285714286,0.02094059728303864
34.17142857142857,0.021019542735484387
34.285714285714285,0.02106264195640254
34.4,0.021060938984226694
34.51428571428571,0.02100647203294233
34.628571428571426,0.020893727434238403
34.74285714285714,0.020721301020493382
34.857142857142854,0.020493285967039424
34.97142857142857,0.020219916201426824
35.08571428571428,0.019917165479262623
35.199999999999996,0.01960527364502505
35.31428571428572,0.01930644795490076
35.42857142857143,0.019042179208649722
35.542857142857144,0.018830671682201473
35.65714285714286,0.018684818114187044
35.77142857142857,0.018611001971758294
35.885714285714286,0.018608835953658736
36.0,0.01867179083915461
36.114285714285714,0.018788550742880033
36.22857142857143,0.018944850360092073
36.34285714285714,0.01912550345879817
36.457142857142856,0.019316320578162988
36.57142857142857,0.019505641493269058
36.68571428571428,0.01968527428669796
36.8,0.019850728851197038
36.91428571428571,0.020000742977005236
37.028571428571425,0.02013620895879018
37.14285714285714,0.020258707832578982
37.25714285714285,0.020368939047552014
37.371428571428574,0.020465382773370344
37.48571428571429,0.020543528871391964
37.6,0.020595928016755995
37.714285714285715,0.020613158488436735
37.82857142857143,0.02058557926048269
37.94285714285714,0.020505512353774707
38.05714285714286,0.02036933888244583
38.17142857142857,0.020178966374148028
38.285714285714285,0.019942252493707298
38.4,0.019672222426572697
38.51428571428571,0.01938522084440165
38.628571428571426,0.019098404990311794
38.74285714285714,0.018827138279807067
38.857142857142854,0.018582847409295493
38.97142857142857,0.018371769855875783
39.08571428571428,0.018194790715076434
39.199999999999996,0.018048315787317807
39.31428571428571,0.017925916963339707
39.42857142857143,0.017820359807221978
39.542857142857144,0.017725593254654434
39.65714285714286,0.017638329246847308
39.77142857142857,0.01755893221877925
39.885714285714286,0.017491445555422865
40.0,0.017442694962660994
40.114285714285714,0.017420537861464778
40.22857142857143,0.017431487990845502
40.34285714285714,0.01747812929775351
40.457142857142856,0.017556899186558162
40.57142857142857,0.017656892356291528
40.68571428571428,0.01776023581606996
40.8,0.01784428009568574
40.91428571428571,0.01788538681466979
41.028571428571425,0.017863595625789885
41.14285714285714,0.017767094109567227
41.25714285714285,0.017595338992106226
41.371428571428574,0.017359943845265485
41.48571428571429,0.017082993947477698
41.6,0.01679310740392626
41.714285714285715,0.01652012709174292
41.82857142857143,0.016289633194195307
41.94285714285714,0.01611844143297568
42.05714285714286,0.016011940883659526
42.17142857142857,0.015963652493450785
42.285714285714285,0.015956904057327737
42.4,0.0159681370590724
42.51428571428571,0.01597114215808403
42.628571428571426,0.015941461524729077
42.74285714285714,0.015860261821178848
42.857142857142854,0.015717128927777338
42.97142857142857,0.015511431857262553
43.08571428571428,0.015252126921672927
43.199999999999996,0.01495610508202926
43.31428571428571,0.014645401391975458
43.42857142857143,0.014343755416376662
43.542857142857144,0.01407310556684923
43.65714285714286,0.013850597799692447
43.77142857142857,0.013686585663806707
43.885714285714286,0.013583908858575309
44.0,0.013538493768179298
44.114285714285714,0.013541068281800026
44.22857142857143,0.01357957759248207
44.34285714285714,0.013641775622902585
44.457142857142856,0.013717476441008188
44.57142857142857,0.013800076668666918
44.68571428571428,0.013887161954030966
44.8,0.01398022171940682
44.91428571428571,0.014083651163900398
45.028571428571425,0.014203282286463819
45.14285714285714,0.014344667207530398
45.25714285714285,0.014511287021436212
45.37142857142857,0.014702836729247215
45.48571428571429,0.014913772603941737
45.6,0.01513238333317842
45.714285714285715,0.015340697596525413
45.82857142857143,0.015515496690524065
45.94285714285714,0.015630525201203394
46.05714285714286,0.015659713286131097
46.17142857142857,0.015580928047499104
46.285714285714285,0.015379568745421289
46.4,0.015051293946561406
46.51428571428571,0.014603335743878357
46.628571428571426,0.014054162294298947
46.74285714285714,0.01343159383099632
46.857142857142854,0.012769755162331486
46.97142857142857,0.012105393759118219
47.08571428571428,0.011474098755863449
47.199999999999996,0.010906864285291563
47.31428571428571,0.010427314210373993
47.42857142857143,0.010049797373612732
47.542857142857144,0.00977849277653397
47.65714285714286,0.009607616593072245
47.77142857142857,0.009522761384862306
47.885714285714286,0.009503291008680803
48.0,0.009525557942322583
48.114285714285714,0.009566533546541673
48.22857142857143,0.00960730225856309
48.34285714285714,0.009635826930294128
48.457142857142856,0.009648480197244761
48.57142857142857,0.009650050160742486
48.68571428571428,0.009652219051916551
48.8,0.009670805634504804
48.91428571428571,0.009722281952124908
49.028571428571425,0.009820177127032903
49.14285714285714,0.009971961852265485
49.25714285714285,0.010176899227721916
49.37142857142857,0.010425195712948393
49.48571428571429,0.010698621888062235
49.6,0.010972601250493631
49.714285714285715,0.011219572665770972
49.82857142857143,0.011413211536474704
49.94285714285714,0.01153287224678637
50.05714285714286,0.011567455175288172
50.17142857142857,0.011517887565482604
50.285714285714285,0.011397595144693871
50.4,0.01123072182773214
50.51428571428571,0.011048342230437044
50.628571428571426,0.01088336866920454
50.74285714285714,0.01076514467401009
50.857142857142854,0.010714759711966105
50.97142857142857,0.010741917567693977
51.08571428571428,0.010843821793064654
51.199999999999996,0.011006121171516538
51.31428571428571,0.011205592262289645
51.42857142857142,0.011413988902344536
51.542857142857144,0.011602375267002772
51.65714285714286,0.011745261374661621
51.77142857142857,0.011823949412818443
51.885714285714286,0.011828654025762135
52.0,0.011759165529834071
52.114285714285714,0.011624064673915285
52.22857142857143,0.011438739010245527
52.34285714285714,0.011222646153554446
52.457142857142856,0.010996367998980091
52.57142857142857,0.010778972949697653
52.68571428571428,0.010586060459862096
52.8,0.010428654818055126
52.91428571428571,0.01031291548744792
53.028571428571425,0.010240500754368349
53.14285714285714,0.010209382033325267
53.25714285714285,0.01021493354087454
53.37142857142857,0.010251163777710742
53.48571428571429,0.010311965202368259
53.6,0.01039222651651458
53.714285714285715,0.010488610720355653
53.82857142857143,0.010599805529645474
53.94285714285714,0.010726139275734957
54.05714285714286,0.010868618098374892
54.17142857142857,0.011027623450601926
54.285714285714285,0.011201634651982399
54.4,0.011386350137681259
54.51428571428571,0.011574464470344041
54.628571428571426,0.011756162679870369
54.74285714285714,0.011920196549000176
54.857142857142854,0.012055278979857423
54.97142857142857,0.012151503841738255
55.08571428571428,0.012201554105944604
