Frequency,PSD
6.0,0.40440174144967245
6.08,0.4026441817246582
6.16,0.3997404343628599
6.24,0.39689163724666565
6.32,0.39578896248240947
6.4,0.39835161230095417
6.48,0.4062561467392934
6.5600000000000005,0.420329730402374
6.640000000000001,0.44003159042082574
6.72,0.4633199651526394
6.8,0.48709632133172226
6.88,0.5081439612135207
6.96,0.5241817855730861
7.04,0.5345367200203008
7.12,0.5401075535644436
7.2,0.5426679460680197
7.28,0.5439084831179655
7.36,0.5447252669113347
7.44,0.5450675064703291
7.5200000000000005,0.5443030146871464
7.6000000000000005,0.5417856713845022
7.68,0.5372717030595362
7.76,0.5310119614729419
7.84,0.5235868665178335
7.92,0.5156864675301053
8.0,0.5080125533553095
8.08,0.5013492736026779
8.16,0.496713881332579
8.24,0.49543366212681506
8.32,0.49902095697228754
8.4,0.5088161101347605
8.48,0.5254925014832472
8.56,0.5486096623141871
8.64,0.5764104424364058
8.72,0.6059766199711009
8.8,0.6337273029605226
8.88,0.6561369959087562
8.96,0.6705145381952361
9.040000000000001,0.6757141580666011
9.120000000000001,0.6726955841246663
9.200000000000001,0.6648597808279321
9.28,0.6580421010322633
9.36,0.6599721844957847
9.44,0.6789826701722002
9.52,0.7218760653997482
9.6,0.7912286202308116
9.68,0.8829639231420761
9.76,0.9854620891109371
9.84,1.0813226065111738
9.92,1.1519077312887724
10.0,1.1832821275234526
10.08,1.1710408831107324
10.16,1.121689510694552
10.24,1.0498329580811137
10.32,0.9725423463642601
10.4,0.9035781818538701
10.48,0.8499108558658331
10.56,0.8115189458883401
10.64,0.7837895060209379
10.72,0.7609087799307637
10.8,0.7386850336122572
10.88,0.7159488221315073
10.96,0.6944807944708155
11.040000000000001,0.6779331937685453
11.120000000000001,0.6703479389795125
11.200000000000001,0.6747645306075735
11.28,0.6922372616349725
11.36,0.7214354607737521
11.44,0.7588670436976315
11.52,0.7996087793623985
11.6,0.8382771733085198
11.68,0.8699205612806573
11.76,0.8906117170517589
11.84,0.8977188015164205
11.92,0.889993570353692
12.0,0.8676261470005071
12.08,0.8322864132164186
12.16,0.7870343434303774
12.24,0.7359707142317197
12.32,0.6836300934259488
12.4,0.634273501510338
12.48,0.5912887798133861
12.56,0.556830769542558
12.64,0.5317174915766292
12.72,0.5155314185055346
12.8,0.5068656165456177
12.88,0.5036570829635302
12.96,0.5035404242114305
13.040000000000001,0.5041575374143323
13.120000000000001,0.5033963800209019
13.200000000000001,0.4995826801673937
13.280000000000001,0.49166404542701264
13.36,0.4793848638470743
13.44,0.4633833630154119
13.52,0.4451072149107992
13.6,0.4264829730982353
13.68,0.4093843259119753
13.76,0.39507165388744003
13.84,0.3838388217407619
13.92,0.37504056895159665
14.0,0.3674968621208279
14.08,0.36007452433830733
14.16,0.35215341850875004
14.24,0.34375684757450986
14.32,0.33532081002757846
14.4,0.327275852350273
14.48,0.31970231023303103
14.56,0.31225109669114876
14.64,0.3043485164352828
14.72,0.29553504867499364
14.8,0.2857252651267767
14.88,0.2752478522226926
14.96,0.26467297770531406
15.040000000000001,0.2545574794384075
15.120000000000001,0.2452631014896881
15.200000000000001,0.23693020173224838
15.280000000000001,0.2295826784692948
15.36,0.22327077601441525
15.44,0.21815643816380753
15.52,0.21449191180326088
15.6,0.21249981017138092
15.68,0.2122085948960029
15.76,0.21332395607488985
15.84,0.2152161622944333
15.92,0.21706425567933468
16.0,0.21812237237361648
16.080000000000002,0.21799511060614785
16.16,0.21677987130141216
16.240000000000002,0.2149859333146693
16.32,0.21325255798862977
16.4,0.2119976414136955
16.48,0.21116910605196118
16.56,0.21022051094587657
16.64,0.20832162906961063
16.72,0.20470476723047734
16.8,0.19899063014025964
16.88,0.1913536663789498
16.96,0.18246304645344685
17.04,0.17323647339142725
17.12,0.1645251578228072
17.2,0.15687092497828528
17.28,0.1504284371143622
17.36,0.14505397344697415
17.44,0.14048124235888595
17.52,0.1364799909729264
17.6,0.1329299683282353
17.68,0.12980567973365467
17.76,0.12711186756074838
17.84,0.1248163459483051
17.92,0.12280858086657206
18.0,0.12089339957925002
18.080000000000002,0.11882043626762251
18.16,0.11634493044432676
18.240000000000002,0.11330554199779225
18.32,0.10969297033910361
18.400000000000002,0.1056812788701423
18.48,0.101607818856598
18.56,0.09790882613862631
18.64,0.09503090824342218
18.72,0.093337682813843
18.8,0.09302443229596447
18.88,0.09405419059770681
18.96,0.09613697261090569
19.04,0.09877689167458682
19.12,0.10139668603080425
19.2,0.10351749188014715
19.28,0.10493986820917324
19.36,0.10585681969153571
19.44,0.10683691593212043
19.52,0.1086445403132631
19.6,0.1119160118000577
19.68,0.11678359829918862
19.76,0.12261030615942692
19.84,0.1280120368209767
19.92,0.1312488346103961
20.0,0.13087719736059095
20.080000000000002,0.1263754430286796
20.16,0.11841926660330208
20.240000000000002,0.10864808352601349
20.32,0.09903395143576896
20.400000000000002,0.09116885948751025
20.48,0.08579809752457002
20.56,0.08276128510703357
20.64,0.08128290770571836
20.72,0.0804115865932187
20.8,0.07939578239399858
20.88,0.0778718183944572
20.96,0.0758560816923955
21.04,0.07361422248783751
21.12,0.0714995509071702
21.2,0.06982297648315383
21.28,0.06877316587436341
21.36,0.06838025592996795
21.44,0.06851679208879947
21.52,0.0689377547393886
21.6,0.06935611488654511
21.68,0.06952955124149865
21.76,0.06931820474823318
21.84,0.06868436527396861
21.92,0.06764191177762983
22.0,0.06619952385966157
22.080000000000002,0.0643464373960982
22.16,0.062095620890486876
22.240000000000002,0.05955152686312773
22.32,0.056945715893912195
22.400000000000002,0.054603011707398494
22.48,0.05284809670082575
22.56,0.051900721814326825
22.64,0.05180981289202659
22.72,0.05244686160051613
22.8,0.05354564048223598
22.88,0.05476364240327519
22.96,0.055750781652285586
23.04,0.05622216780452161
23.12,0.056027128672259875
23.2,0.05519127252667223
23.28,0.0539036955431231
23.36,0.052441594584570796
23.44,0.05105976705958144
23.52,0.04989637456859558
23.6,0.048939408160527
23.68,0.04806467830831028
23.76,0.04711910864766214
23.84,0.04600546683427319
23.92,0.044732693621843414
24.0,0.04341864159096287
24.080000000000002,0.04225275796567021
24.16,0.041435780790908885
24.240000000000002,0.04111394845056954
24.32,0.04132395639309877
24.400000000000002,0.04196523106364037
24.48,0.04281351766296303
24.560000000000002,0.0435778547378153
24.64,0.043983115372933854
24.72,0.043844488237265986
24.8,0.0431023222815661
24.88,0.041807739146978454
24.96,0.040077283449088424
25.04,0.03804881742988652
25.12,0.03586170497875561
25.2,0.03366101310849871
25.28,0.03160695370228109
25.36,0.029870243069195793
25.44,0.028609090968231596
25.52,0.02793984261852514
25.6,0.02791723772674562
25.68,0.028529829939573197
25.76,0.029702199204025823
25.84,0.03129249245211046
25.92,0.03308620431888364
26.0,0.03480404761840986
26.080000000000002,0.03614475694757704
26.16,0.036863725225326244
26.240000000000002,0.03685722591530522
26.32,0.0362050253709087
26.400000000000002,0.03513917278177887
26.48,0.033947061535172594
26.560000000000002,0.03285547089314367
26.64,0.03195303685792503
26.72,0.03118558511676362
26.8,0.03041842214021432
26.88,0.029526700644254295
26.96,0.028465875186390918
27.04,0.027290175720212785
27.12,0.026116730268353164
27.2,0.025060586300164736
27.28,0.02417827275010656
27.36,0.023449559688210508
27.44,0.022803825103182466
27.52,0.02217217481690443
27.6,0.02153362297277054
27.68,0.020930143367873452
27.76,0.020445932997873867
27.84,0.020166758323428482
27.92,0.020142974452787253
28.0,0.02037207452657726
28.080000000000002,0.020801783766092565
28.16,0.021344401645852246
28.240000000000002,0.02189293044547607
28.32,0.022335982897938894
28.400000000000002,0.02257372726430721
28.48,0.022536538637394788
28.560000000000002,0.022203208962120753
28.64,0.021611555103126772
28.72,0.0208546055722707
28.8,0.020060195970530156
28.88,0.01935837640318914
28.96,0.018846692489887802
29.04,0.01856559168608119
29.12,0.01849321562560529
29.2,0.018561157197634563
29.28,0.018683863775331738
29.36,0.01878900469162337
29.44,0.01883698675191409
29.52,0.0188237976235162
29.6,0.01876900069439372
29.68,0.01869670906106699
29.76,0.018619731981974363
29.84,0.018534837247834845
29.92,0.018430618358795482
30.0,0.01830171877124822
30.080000000000002,0.018159010417868795
30.16,0.018028087992950532
30.240000000000002,0.017936487542984367
30.32,0.017897487593521545
30.400000000000002,0.017899991985509456
30.48,0.0179095693751315
30.560000000000002,0.01787938868357476
30.64,0.01776584812617566
30.72,0.017543314686728217
30.8,0.017213983962845507
30.88,0.016810576596924687
30.96,0.016390860135115128
31.04,0.016024337035842322
31.12,0.01577342991659595
31.2,0.015673978772193613
31.28,0.015721706473091318
31.36,0.01587075019770515
31.44,0.016046320533261157
31.52,0.016167214397425304
31.6,0.01616882193204303
31.68,0.01601708053569113
31.76,0.01570917213730386
31.84,0.015264239059693395
31.92,0.014712004396880538
32.0,0.014086174254945297
32.08,0.013424305390562462
32.160000000000004,0.012770574632055009
32.24,0.012176127749520852
32.32,0.011694056178245808
32.4,0.011370347307919986
32.480000000000004,0.011235155426765751
32.56,0.011298371675654837
32.64,0.011550145073332277
32.72,0.011963423297675713
32.8,0.012494875856683334
32.88,0.013083741696393167
32.96,0.013652788211187213
33.04,0.014117336424773027
33.12,0.014404528906531511
33.2,0.01447740412919268
33.28,0.014352166918285607
33.36,0.014097271877734838
33.44,0.01381052757142025
33.52,0.013581640013031391
33.6,0.013456292048323942
33.68,0.013418852239748596
33.76,0.01340278910819484
33.84,0.013324440548342864
33.92,0.013124033160794461
34.0,0.012794327858386698
34.08,0.012383830570060192
34.160000000000004,0.011974147489151828
34.24,0.011642891640819459
34.32,0.011429195796931432
34.4,0.01131685247212449
34.480000000000004,0.011242118855920006
34.56,0.011122606997948713
34.64,0.010894403434914216
34.72,0.010540656742992687
34.800000000000004,0.010098802562913258
34.88,0.009644074085180183
34.96,0.009258546371821628
35.04,0.009001094945920085
35.12,0.008891115676376939
35.2,0.008910128416791542
35.28,0.009016500392008424
35.36,0.00916441929502975
35.44,0.009319606367470751
35.52,0.009468127831421652
35.6,0.00961765146214875
35.68,0.009791533770296679
35.76,0.010016631273526113
35.84,0.010307513370090803
35.92,0.010652688493376196
36.0,0.011010058135398767
36.08,0.01131631732278587
36.160000000000004,0.011508334326255974
36.24,0.011547310653404941
36.32,0.011433786290948832
36.4,0.01120572104609408
36.480000000000004,0.010920634160695174
36.56,0.010630854229476239
36.64,0.010363912908075486
36.72,0.010116925536162162
36.800000000000004,0.009866485720344032
36.88,0.009587816888298394
36.96,0.009272486245571527
37.04,0.008935358737425828
37.12,0.008608101221166347
37.2,0.008324488703615726
37.28,0.00810693682539018
37.36,0.00796159876547504
37.44,0.007883001822802506
37.52,0.00786325569169837
37.6,0.007899056780628215
37.68,0.007992390404802862
37.76,0.00814544494765223
37.84,0.008353617323536663
37.92,0.008600887589109957
38.0,0.008859740027593896
38.08,0.009095135558858089
38.160000000000004,0.009270631042208873
38.24,0.009355007135917463
38.32,0.009328599441485555
38.4,0.00918858061956665
38.480000000000004,0.008951629375939322
38.56,0.008652074640033317
38.64,0.008334973348153796
38.72,0.008046266383111766
38.800000000000004,0.007824263623363572
38.88,0.007696737866700568
38.96,0.007686369595270484
39.04,0.007826126463131026
39.12,0.008186241745763698
39.2,0.008913347194094078
39.28,0.010275019666851485
39.36,0.01268670638195055
39.44,0.016679017206716152
39.52,0.022760331631311838
39.6,0.03116487100167459
39.68,0.041553645641094136
39.76,0.05281895260969959
39.84,0.06316317136430907
39.92,0.07052585471746621
40.0,0.07324334421426495
40.08,0.07065600703012813
40.160000000000004,0.06336057282964795
40.24,0.05297620911681337
40.32,0.04154996815639714
40.4,0.0309001387239051
40.480000000000004,0.022181493957951822
40.56,0.01579087527165024
40.64,0.011544672026438758
40.72,0.0089639563038713
40.800000000000004,0.007521416156044229
40.88,0.006783624712572451
40.96,0.006455079639510544
41.04,0.006362988500610359
41.12,0.006419196044410384
41.2,0.0065800092814031
41.28,0.006812799821231683
41.36,0.007074138251476547
41.44,0.007303328917184844
41.52,0.0074322539894157045
41.6,0.007406315308137413
41.68,0.007205505585392213
41.76,0.00685398688318661
41.84,0.0064125757682801515
41.92,0.005957814262963807
42.0,0.005557877878878191
42.08,0.005255602566220903
42.160000000000004,0.005063466389670585
42.24,0.00496895254930135
42.32,0.004945329391335285
42.4,0.00496318124995814
42.480000000000004,0.004999879943697995
42.56,0.00504533654457553
42.64,0.005102519047115823
42.72,0.0051818374592946075
42.800000000000004,0.005290840363485205
42.88,0.0054239795039340635
42.96,0.005558855030625073
43.04,0.005663025563963516
43.12,0.005709542535748406
43.2,0.005693338613979564
43.28,0.00563871008465373
43.36,0.005592108233620965
43.44,0.0056021349646772495
43.52,0.0056956118846378505
43.6,0.005861167469345509
43.68,0.006048828456555995
43.76,0.006187009356777859
43.84,0.006210151765801836
43.92,0.00608488403011859
44.0,0.005822998405801754
44.08,0.005476027301102001
44.160000000000004,0.0051152715586432786
44.24,0.00480746274446173
44.32,0.004596402114386026
44.4,0.004495831826489523
44.480000000000004,0.004492600619981401
44.56,0.004555713638248462
44.64,0.004646950635287632
44.72,0.0047305278377845345
44.800000000000004,0.004780534633317705
44.88,0.004785008290928714
44.96,0.004745590892795484
45.04,0.004672893449816501
45.12,0.004579738488981423
45.2,0.004475813372108459
45.28,0.004366555204526551
45.36,0.0042564962276012055
45.44,0.00415454692432783
45.52,0.004077578084103204
45.6,0.004049637000493149
45.68,0.004096248689573791
45.76,0.004235291018909806
45.84,0.004467368822086183
45.92,0.004769447370155076
46.0,0.005095445751623837
46.08,0.005385778473119707
46.160000000000004,0.005584221386055518
46.24,0.005656296879018169
46.32,0.005601222906794941
46.4,0.00545137430149327
46.480000000000004,0.005258768658822147
46.56,0.005074398539322662
46.64,0.004929691816231959
46.72,0.004828052295907095
46.800000000000004,0.004749173196828419
46.88,0.004662631740561425
46.96,0.004543461285616453
47.04,0.004382669339722447
47.12,0.004189312130666884
47.2,0.003985269494967171
47.28,0.003796733568428544
47.36,0.003646553428626343
47.44,0.0035497252753685475
47.52,0.0035121622799575217
47.6,0.0035316908922560994
47.68,0.003600158890409832
47.76,0.00370592996628007
47.84,0.0038362042604452376
47.92,0.0039784870395990005
48.0,0.004120620734776037
48.08,0.00424951091568232
48.160000000000004,0.004349765892418412
48.24,0.004404070807903903
48.32,0.0043964651738873095
48.4,0.004317896192299747
48.480000000000004,0.004171572538476578
48.56,0.00397507849780274
48.64,0.003757481491040802
48.72,0.0035521226073308675
48.800000000000004,0.0033880616347712472
48.88,0.0032841613890415705
48.96,0.003249332422207863
49.04,0.0032910494214982537
49.120000000000005,0.0034324420530598525
49.2,0.0037358547617100286
49.28,0.00432670058272893
49.36,0.005405043288497259
49.44,0.0072259632271782365
49.52,0.010030505526602215
49.6,0.013925821733016801
49.68,0.0187474616804466
49.76,0.023972913726780943
49.84,0.028762932836664656
49.92,0.03216223048612247
50.0,0.03340472104961769
50.08,0.03219220276197716
50.160000000000004,0.028808269659701645
50.24,0.02400805199782155
50.32,0.018742075708373385
50.4,0.013851743399442406
50.480000000000004,0.009867533978461396
50.56,0.006965336202996476
50.64,0.005050206560852193
50.72,0.0038916627161566034
50.800000000000004,0.00324168818121872
50.88,0.0029026475477394315
50.96,0.002746842776580674
51.04,0.00270627349270405
51.120000000000005,0.002751305461493412
51.2,0.002869591030211366
51.28,0.003049775106513386
51.36,0.0032713465455769426
51.44,0.003501434608231529
51.52,0.0036989373187114143
51.6,0.0038246066716309153
51.68,0.003853147595471616
51.76,0.003781935577242381
51.84,0.003632138699878962
51.92,0.003441527212704803
52.0,0.003252072593226806
52.08,0.003097451080151959
52.160000000000004,0.0029950187420940775
52.24,0.0029445386166319833
52.32,0.002933309940271883
52.4,0.0029452840248760798
52.480000000000004,0.002970495192281975
52.56,0.00301080784514551
52.64,0.0030789587779986565
52.72,0.0031904485796912813
52.800000000000004,0.003351457310121677
52.88,0.003548919208166291
52.96,0.0037490570840882902
53.04,0.003907046636094482
53.120000000000005,0.003984441552612461
53.2,0.003966007757033388
53.28,0.0038670880606150176
53.36,0.0037273094951331687
53.44,0.0035936562152721983
53.52,0.003501314853031892
53.6,0.0034612865648240296
53.68,0.0034597305307785533
53.76,0.0034680572610458265
53.84,0.003458094922252513
53.92,0.003415127657062549
54.0,0.0033433964518115016
54.08,0.0032625199980308543
54.160000000000004,0.003197358220819544
54.24,0.0031663932614118054
54.32,0.003173844591149548
54.4,0.00320864403824873
54.480000000000004,0.0032501284304509203
54.56,0.00327732614293563
54.64,0.003277343715664005
54.72,0.003249228719985781
54.800000000000004,0.003202312055020964
54.88,0.0031509110060932172
54.96,0.0031086982319937628
55.04,0.0030852676805294757
