Frequency,PSD
6.057142857142857,0.2545538402447773
6.171428571428571,0.25956188631202326
6.285714285714286,0.2703680539793155
6.3999999999999995,0.28749801406635606
6.514285714285714,0.30971655550344557
6.628571428571428,0.3333708214528712
6.742857142857143,0.35391279115782187
6.857142857142857,0.3689870694071829
6.9714285714285715,0.3797326002577089
7.085714285714285,0.38809509361429306
7.2,0.3934311950979666
7.314285714285714,0.39360592485514356
7.428571428571428,0.38945915533076797
7.542857142857143,0.3858820402387695
7.657142857142857,0.38742876000742743
7.771428571428571,0.39452208980001424
7.885714285714285,0.40525568694509384
8.0,0.4198427579533395
8.114285714285714,0.44175580239084417
8.228571428571428,0.4743693884799379
8.342857142857143,0.5170116452245923
8.457142857142857,0.5640089515401209
8.571428571428571,0.606720818154048
8.685714285714285,0.6367100303639844
8.799999999999999,0.6487082194328218
8.914285714285715,0.6428091648357716
9.028571428571428,0.6258083839625421
9.142857142857142,0.6109951040482104
9.257142857142856,0.6141931500656551
9.371428571428572,0.6457235518344019
9.485714285714286,0.7037395051111568
9.6,0.7757754903044365
9.714285714285714,0.8474356559115614
9.828571428571427,0.9088350829843421
9.942857142857143,0.9531274922584408
10.057142857142857,0.9734174309969506
10.17142857142857,0.9663391630442313
10.285714285714285,0.9385048770969733
10.4,0.90547198966708
10.514285714285714,0.8829896135903843
10.628571428571428,0.8805600032416049
10.742857142857142,0.902103008072308
10.857142857142858,0.9477169708394861
10.971428571428572,1.0107779176525347
11.085714285714285,1.0736466569388594
11.2,1.1096193964028875
11.314285714285713,1.0938238346020046
11.428571428571429,1.0171175549840792
11.542857142857143,0.8923584169318733
11.657142857142857,0.7471828611405582
11.77142857142857,0.6087712012999855
11.885714285714286,0.49231733039641556
12.0,0.39989497051302325
12.114285714285714,0.327078527655262
12.228571428571428,0.2701206272478556
12.342857142857142,0.22851475422608553
12.457142857142857,0.20279853655242933
12.571428571428571,0.1910746902963062
12.685714285714285,0.18779930838176445
12.799999999999999,0.18585736088350055
12.914285714285715,0.18013836402908823
13.028571428571428,0.1697374418125127
13.142857142857142,0.15723588086333826
13.257142857142856,0.14597923116874945
13.371428571428572,0.13762694634495368
13.485714285714286,0.1315604164414473
13.6,0.12603140001781868
13.714285714285714,0.11977789391170884
13.828571428571427,0.11289944667770316
13.942857142857143,0.10659891425870657
14.057142857142857,0.10215702941547473
14.17142857142857,0.09990573217886112
14.285714285714285,0.09899810241382156
14.4,0.09820644412099142
14.514285714285714,0.0969765102563625
14.628571428571428,0.09561419574749772
14.742857142857142,0.09445407869438928
14.857142857142856,0.0930913311930709
14.971428571428572,0.09066337883095159
15.085714285714285,0.08683641797057123
15.2,0.0823294955152119
15.314285714285713,0.07848953864143449
15.428571428571429,0.0764704287478824
15.542857142857143,0.07659365679864065
15.657142857142857,0.07799410988472888
15.77142857142857,0.07875824306168629
15.885714285714284,0.07690883307405709
16.0,0.0718201002697568
16.114285714285714,0.06482469428262408
16.228571428571428,0.05838164196400945
16.34285714285714,0.05461814089801841
16.457142857142856,0.054453123319928756
16.57142857142857,0.05759488228958071
16.685714285714287,0.06293679519068296
16.8,0.069009443569614
16.914285714285715,0.07444467966636811
17.02857142857143,0.07828628463442056
17.142857142857142,0.07997912302909484
17.257142857142856,0.07930883158009738
17.37142857142857,0.07664343901673347
17.485714285714284,0.07316476781225546
17.599999999999998,0.07048315036527994
17.714285714285715,0.06980098601898224
17.82857142857143,0.07143026184422627
17.942857142857143,0.0749255268293126
18.057142857142857,0.07935985769258339
18.17142857142857,0.08351766523460888
18.285714285714285,0.08629414171187316
18.4,0.08728670837730719
18.514285714285712,0.08696950021925295
18.628571428571426,0.08610578015373611
18.742857142857144,0.08497035013007026
18.857142857142858,0.08321258075113441
18.97142857142857,0.08039150162144046
19.085714285714285,0.0765348140175983
19.2,0.0723221383426142
19.314285714285713,0.0689171280232426
19.428571428571427,0.06746899179677021
19.54285714285714,0.06840810633012216
19.657142857142855,0.07102657801510175
19.771428571428572,0.07377666079984865
19.885714285714286,0.07513519091147886
20.0,0.07444107863659023
20.114285714285714,0.07215719782655754
20.228571428571428,0.06940576437268615
20.34285714285714,0.06718986815053071
20.457142857142856,0.06598641969107799
20.57142857142857,0.06590563137038696
20.685714285714287,0.0668873755383203
20.8,0.06852157338437095
20.914285714285715,0.0698783803637279
21.02857142857143,0.06992318137019443
21.142857142857142,0.0683090918144611
21.257142857142856,0.06571146868390249
21.37142857142857,0.06329542467149268
21.485714285714284,0.06184899868796508
21.599999999999998,0.06141097120530673
21.714285714285715,0.0615730058465984
21.82857142857143,0.06192021415143521
21.942857142857143,0.062176037545702556
22.057142857142857,0.06221216141710263
22.17142857142857,0.062188915722223716
22.285714285714285,0.0626199855247147
22.4,0.06398052660286346
22.514285714285712,0.06602063715220105
22.628571428571426,0.06752310386991132
22.742857142857144,0.06697861051945518
22.857142857142858,0.06370275159381447
22.97142857142857,0.05839318171818677
23.085714285714285,0.05264306693854014
23.2,0.047861270584985766
23.314285714285713,0.044466938279151685
23.428571428571427,0.04191243500341105
23.54285714285714,0.03940172433722717
23.657142857142855,0.03662283998433398
23.771428571428572,0.03388956358734408
23.885714285714286,0.031749046499650005
24.0,0.030596316762801244
24.114285714285714,0.0305996840536114
24.228571428571428,0.031738466375363296
24.34285714285714,0.03372137091086819
24.457142857142856,0.03593178339301403
24.57142857142857,0.0376651542218748
24.685714285714283,0.03853877475364186
24.8,0.038626199671841485
24.914285714285715,0.03815647873020049
25.02857142857143,0.03718698868981812
25.142857142857142,0.03568092491262742
25.257142857142856,0.03383335454391568
25.37142857142857,0.03214507861841776
25.485714285714284,0.031106225508876845
25.599999999999998,0.03084192380143609
25.71428571428571,0.031058834952363387
25.82857142857143,0.03128510249214119
25.942857142857143,0.03117754331750399
26.057142857142857,0.030677734249637524
26.17142857142857,0.02993478259775684
26.285714285714285,0.029107377998576576
26.4,0.02825683960192213
26.514285714285712,0.027402375778420543
26.628571428571426,0.026589759497536274
26.742857142857144,0.025846643449373298
26.857142857142858,0.025123922752565957
26.97142857142857,0.024359763806165294
27.085714285714285,0.02357781944317697
27.2,0.022844290299508952
27.314285714285713,0.022124723338468114
27.428571428571427,0.021256258047468106
27.54285714285714,0.020116276756812115
27.657142857142855,0.018804254217057382
27.771428571428572,0.017604725824656994
27.885714285714286,0.016750500705585408
28.0,0.016253322855170647
28.114285714285714,0.015981525754594238
28.228571428571428,0.01586042018900414
28.34285714285714,0.015961668332293746
28.457142857142856,0.01642070253713806
28.57142857142857,0.01728753216903281
28.685714285714283,0.01841974222371546
28.8,0.019483808965925175
28.914285714285715,0.02010442958128847
29.02857142857143,0.02011218106128395
29.142857142857142,0.0197082544591802
29.257142857142856,0.01936497609751355
29.37142857142857,0.01949556582144731
29.485714285714284,0.02017563850736591
29.599999999999998,0.021180588173431866
29.71428571428571,0.022262788961445346
29.82857142857143,0.023312846759833937
29.942857142857143,0.024231166066929093
30.057142857142857,0.024765308804660324
30.17142857142857,0.024625364178571266
30.285714285714285,0.023785545204507694
30.4,0.022604330508825547
30.514285714285712,0.02159601011181927
30.628571428571426,0.021043739007186875
30.74285714285714,0.0207732441510049
30.857142857142858,0.020285813744484255
30.97142857142857,0.019184808649438913
31.085714285714285,0.017553641208975224
31.2,0.015941440199592007
31.314285714285713,0.014983986161915274
31.428571428571427,0.015008384405229279
31.54285714285714,0.01587721260364821
31.657142857142855,0.01708061074678203
31.77142857142857,0.018011052934220898
31.885714285714286,0.01831411822002528
32.0,0.018078447438541388
32.114285714285714,0.017672869968475335
32.22857142857143,0.017365684961271284
32.34285714285714,0.017098909307980213
32.457142857142856,0.016624496393734235
32.57142857142857,0.01582578323143718
32.68571428571428,0.014869591644009448
32.8,0.0140453636521929
32.91428571428571,0.01350548801334403
33.028571428571425,0.01320843941604375
33.14285714285714,0.013084768636121312
33.25714285714285,0.01317050591447572
33.371428571428574,0.013541082985078156
33.48571428571429,0.014168259428152285
33.6,0.014892840939280248
33.714285714285715,0.015516816123885868
33.82857142857143,0.015893163807929062
33.94285714285714,0.01595924215782029
34.05714285714286,0.015741613679046217
34.17142857142857,0.015348983837900258
34.285714285714285,0.014938926247882407
34.4,0.014648387473283113
34.51428571428571,0.014513902244090915
34.628571428571426,0.014453703148658023
34.74285714285714,0.01436396907002832
34.857142857142854,0.01425480200536591
34.97142857142857,0.01426382226471499
35.08571428571428,0.014508091950201415
35.199999999999996,0.014941440707292229
35.31428571428572,0.015371748776611346
35.42857142857143,0.015580794455128472
35.542857142857144,0.015409868479785777
35.65714285714286,0.014802328365631993
35.77142857142857,0.013856807546465242
35.885714285714286,0.012844311016013828
36.0,0.01209719751472592
36.114285714285714,0.011806582266397043
36.22857142857143,0.011892275266073477
36.34285714285714,0.01205733390063122
36.457142857142856,0.011982920152100278
36.57142857142857,0.011528024779170573
36.68571428571428,0.010803566546391797
36.8,0.010069481364275462
36.91428571428571,0.009545538588932747
37.028571428571425,0.009301645820739262
37.14285714285714,0.009288919167671529
37.25714285714285,0.009427704908322863
37.371428571428574,0.009658739670822841
37.48571428571429,0.00994042284524857
37.6,0.01022554783085763
37.714285714285715,0.010457589371221331
37.82857142857143,0.010597977055737128
37.94285714285714,0.010652379685133807
38.05714285714286,0.010662256571436603
38.17142857142857,0.010674526837131555
38.285714285714285,0.010729083791047974
38.4,0.010869555238868756
38.51428571428571,0.011135684743408326
38.628571428571426,0.011519031284427514
38.74285714285714,0.011942019341753818
38.857142857142854,0.012318860429678285
38.97142857142857,0.012641535460863492
39.08571428571428,0.012979230959809828
39.199999999999996,0.013385902435872519
39.31428571428571,0.013820304208759713
39.42857142857143,0.014150844092946965
39.542857142857144,0.014226290456680703
39.65714285714286,0.013957977913415864
39.77142857142857,0.013367886155875041
39.885714285714286,0.012583283330236271
40.0,0.011796565367655255
40.114285714285714,0.011214177888686366
40.22857142857143,0.010996167535096421
40.34285714285714,0.01120071098342306
40.457142857142856,0.01176686422919169
40.57142857142857,0.01253445118122475
40.68571428571428,0.013275675317637858
40.8,0.013750768005587211
40.91428571428571,0.013805352701089643
41.028571428571425,0.013453017094417008
41.14285714285714,0.012862383771510385
41.25714285714285,0.012258010642121737
41.371428571428574,0.011810744803888221
41.48571428571429,0.011564913980742499
41.6,0.011433719159368048
41.714285714285715,0.011292300998359605
41.82857142857143,0.011106824719006415
41.94285714285714,0.010965755568132365
42.05714285714286,0.010989953330143309
42.17142857142857,0.011234768152651316
42.285714285714285,0.0116505480541047
42.4,0.012076423292673059
42.51428571428571,0.012281293770436904
42.628571428571426,0.012089440874981981
42.74285714285714,0.011511178193354154
42.857142857142854,0.01073795383869738
42.97142857142857,0.010000364657712863
43.08571428571428,0.009432956182046096
43.199999999999996,0.009051451548458062
43.31428571428571,0.008820897381216556
43.42857142857143,0.008733265443704053
43.542857142857144,0.008827175895045511
43.65714285714286,0.00913066607082781
43.77142857142857,0.009578873259564904
43.885714285714286,0.00999889908019854
44.0,0.010199606334122088
44.114285714285714,0.010096065109961045
44.22857142857143,0.009755566855011706
44.34285714285714,0.009325875714181761
44.457142857142856,0.008923585657183094
44.57142857142857,0.008596918319898854
44.68571428571428,0.008383071928411773
44.8,0.008358256778825505
44.91428571428571,0.008586327624762947
45.028571428571425,0.009011136061830847
45.14285714285714,0.009432927310145375
45.25714285714285,0.009632885864983077
45.37142857142857,0.009543303686786301
45.48571428571429,0.009293313711705938
45.6,0.0090744769641578
45.714285714285715,0.008953146412601531
45.82857142857143,0.008815522159831475
45.94285714285714,0.008497173212374124
46.05714285714286,0.007959410220092345
46.17142857142857,0.007338425763657447
46.285714285714285,0.006842299703881874
46.4,0.006616630147191273
46.51428571428571,0.00668464222122041
46.628571428571426,0.006961247357478264
46.74285714285714,0.0072958228806523215
46.857142857142854,0.007532373072968564
46.97142857142857,0.007589366281449012
47.08571428571428,0.007517390244729812
47.199999999999996,0.00747219608879282
47.31428571428571,0.007606891436417384
47.42857142857143,0.007971045984141547
47.542857142857144,0.008497538202608236
47.65714285714286,0.009067491921608575
47.77142857142857,0.00957897366025456
47.885714285714286,0.009968439206051574
48.0,0.010196513209731818
48.114285714285714,0.010237752602916633
48.22857142857143,0.010094809101237718
48.34285714285714,0.009825866397697367
48.457142857142856,0.0095595430839328
48.57142857142857,0.00947746380692739
48.68571428571428,0.009767064958375447
48.8,0.010585214813667664
48.91428571428571,0.012150835148280177
49.028571428571425,0.015314005843298877
49.14285714285714,0.02339314203067666
49.25714285714285,0.046083713884210835
49.37142857142857,0.1039126191962953
49.48571428571429,0.2259738923576092
49.6,0.43063749984413846
49.714285714285715,0.6923393658565415
49.82857142857143,0.9260445719351424
49.94285714285714,1.0254279384788791
50.05714285714286,0.9390068578013502
50.17142857142857,0.7121954776231045
50.285714285714285,0.44974019798921117
50.4,0.23961997140863261
50.51428571428571,0.11145910496704889
50.628571428571426,0.049285682947960166
50.74285714285714,0.024389394708649113
50.857142857142854,0.015571249843527833
50.97142857142857,0.012286750722223013
51.08571428571428,0.01061107338733212
51.199999999999996,0.009434677087149262
51.31428571428571,0.008560657269410802
51.42857142857142,0.007986240312011552
51.542857142857144,0.007662048236223464
51.65714285714286,0.007463392117720119
51.77142857142857,0.007271766081373587
51.885714285714286,0.007053399198470801
52.0,0.006855094527131374
52.114285714285714,0.006739902692780237
52.22857142857143,0.006739775433696775
52.34285714285714,0.006859832573854849
52.457142857142856,0.007102985153458459
52.57142857142857,0.007470049699183312
52.68571428571428,0.007927329356743932
52.8,0.008377182601565078
52.91428571428571,0.008678598182002787
53.028571428571425,0.008725590341025678
53.14285714285714,0.008522969547627348
53.25714285714285,0.008175917631933658
53.37142857142857,0.00778965871629651
53.48571428571429,0.007386257231103293
53.6,0.006934290287181143
53.714285714285715,0.00644716239656406
53.82857142857143,0.00602219711172643
53.94285714285714,0.005775649972154718
54.05714285714286,0.005755939134895514
54.17142857142857,0.0059282660014821275
54.285714285714285,0.006229012434116357
54.4,0.006613126990071116
54.51428571428571,0.007041136445726116
54.628571428571426,0.007439509400401196
54.74285714285714,0.007709862328698756
54.857142857142854,0.007798588806677202
54.97142857142857,0.0077505816550014605
55.08571428571428,0.007679882771716136
