Frequency,PSD
6.0,0.43436676506906885
6.08,0.43382267088622317
6.16,0.4330172147687671
6.24,0.43240826377433683
6.32,0.4324548925335555
6.4,0.43344263303134783
6.48,0.43537179189245634
6.5600000000000005,0.4379478923593813
6.640000000000001,0.44067643958538916
6.72,0.44302892675905475
6.8,0.4446241425688827
6.88,0.44536432949828486
6.96,0.44548043140672866
7.04,0.4454704080208863
7.12,0.4459503359208017
7.2,0.4474675407363951
7.28,0.4503372578628548
7.36,0.4545547048354477
7.44,0.4598075161402847
7.5200000000000005,0.4655805802892955
7.6000000000000005,0.4713184238284515
7.68,0.47659638626397305
7.76,0.4812514807728701
7.84,0.4854341806755408
7.92,0.4895610244271295
8.0,0.494173768157235
8.08,0.49974096404470564
8.16,0.5064642734946029
8.24,0.5141620911542246
8.32,0.5222866607877228
8.4,0.5300876262407053
8.48,0.5368790361523761
8.56,0.5423221083074591
8.64,0.5466244523746926
8.72,0.5505856084912623
8.8,0.5554769543656647
8.88,0.562805457405083
8.96,0.5740482972644951
9.040000000000001,0.5904435925207687
9.120000000000001,0.612883800710526
9.200000000000001,0.64190079760874
9.28,0.6776805641181015
9.36,0.7200245960828116
9.44,0.7681992356423821
9.52,0.8206820628874468
9.6,0.8749044402791589
9.68,0.9271595721789341
9.76,0.972848102412198
9.84,1.00714056887842
9.92,1.0259666467599913
10.0,1.0270652048048847
10.08,1.0107393675748686
10.16,0.9800195320063322
10.24,0.940133598006057
10.32,0.8974311575863204
10.4,0.8580914766617977
10.48,0.8269850109035994
10.56,0.8069550580122542
10.64,0.7986104700844299
10.72,0.80056310697254
10.8,0.809962014294193
10.88,0.8231704174935988
10.96,0.8364626924444561
11.040000000000001,0.8466468914577248
11.120000000000001,0.8515317959652978
11.200000000000001,0.8501705981534484
11.28,0.8428460296431785
11.36,0.8308165495605789
11.44,0.8159006853631008
11.52,0.8000102834476939
11.6,0.7847395598986675
11.68,0.7710831143893715
11.76,0.7593134779241739
11.84,0.7490154451358498
11.92,0.7392549815042216
12.0,0.7288478480173153
12.08,0.7166791141150128
12.16,0.702009379360845
12.24,0.684695543091164
12.32,0.6652639212154959
12.4,0.6448054581706447
12.48,0.6247104534053567
12.56,0.6063092547687456
12.64,0.590519024048909
12.72,0.5776017914220863
12.8,0.5671105412859229
12.88,0.5580437564241434
12.96,0.5491612646106917
13.040000000000001,0.5393588157388447
13.120000000000001,0.5279775909554695
13.200000000000001,0.5149484565696695
13.280000000000001,0.5007319349542936
13.36,0.48608973363141095
13.44,0.4717818030390675
13.52,0.4583012532150518
13.6,0.4457332825026329
13.68,0.4337687802345551
13.76,0.42184522857702667
13.84,0.4093512535653448
13.92,0.3958267428760778
14.0,0.381110691156232
14.08,0.3654163904237895
14.16,0.34933252971833223
14.24,0.33375445301962176
14.32,0.31974925664496423
14.4,0.30836299557429914
14.48,0.3003940076477924
14.56,0.29617843353635176
14.64,0.2954491344503326
14.72,0.2973238890530583
14.8,0.3004480671721744
14.88,0.30326887605376984
14.96,0.3043710638915724
15.040000000000001,0.3027782363931098
15.120000000000001,0.29813266533868243
15.200000000000001,0.2907079950865853
15.280000000000001,0.2812670151145408
15.36,0.2708264348114501
15.44,0.2604121383609563
15.52,0.25087540830118626
15.6,0.2428032260247627
15.68,0.23651418100067828
15.76,0.23210467107375876
15.84,0.22950622245532237
15.92,0.22852925214762482
16.0,0.22888897892171528
16.080000000000002,0.23022343398923834
16.16,0.23211611804808135
16.240000000000002,0.23412889569137868
16.32,0.2358407847246889
16.4,0.23688196368965397
16.48,0.236952980303736
16.56,0.23582608841414945
16.64,0.23333498260763866
16.72,0.22936581171187023
16.8,0.22386220079278737
16.88,0.21684923195411374
16.96,0.2084691362042972
17.04,0.1990109882011182
17.12,0.18891402512219577
17.2,0.17873179757798144
17.28,0.16905933367745024
17.36,0.16044092045737052
17.44,0.1532846502414828
17.52,0.1478076904954546
17.6,0.14402473389114237
17.68,0.14177683521742407
17.76,0.14078546842553966
17.84,0.14071169564645938
17.92,0.14120368432856628
18.0,0.14192485199904123
18.080000000000002,0.1425651827981285
18.16,0.1428453124214045
18.240000000000002,0.14252408760197285
18.32,0.14141544390619287
18.400000000000002,0.13941232373348705
18.48,0.1365083100395243
18.56,0.13280559835523384
18.64,0.12850229668258648
18.72,0.12386084904578695
18.8,0.11916816725608861
18.88,0.11470223890942255
18.96,0.1107172226595794
19.04,0.10745031033890229
19.12,0.10514249251792229
19.2,0.10405625054199848
19.28,0.10446986694499671
19.36,0.10663274709418662
19.44,0.11067920952507414
19.52,0.11651736553493498
19.6,0.12372927584051444
19.68,0.13152972796227005
19.76,0.1388247167234442
19.84,0.1443832022706521
19.92,0.1470932443331671
20.0,0.14623283100688972
20.080000000000002,0.1416670349779261
20.16,0.13389957611581266
20.240000000000002,0.12395519567750472
20.32,0.11312963999674686
20.400000000000002,0.10268977790608855
20.48,0.09361786632470381
20.56,0.08646869960204251
20.64,0.08136077575272628
20.72,0.07807506779533309
20.8,0.07620609661891442
20.88,0.07530696325075734
20.96,0.07498808650980143
21.04,0.07495685405543427
21.12,0.07500988827933423
21.2,0.07500297535141148
21.28,0.07482375273818263
21.36,0.0743821935965876
21.44,0.07362004027499414
21.52,0.07252910534656994
21.6,0.07116397801448897
21.68,0.06963782318053989
21.76,0.0680981598094021
21.84,0.06668869710714104
21.92,0.06550971291606625
22.0,0.06459085424776688
22.080000000000002,0.06388635957672416
22.16,0.06329501057095199
22.240000000000002,0.06269828159436944
22.32,0.06200330776491594
22.400000000000002,0.061175094661464105
22.48,0.06024598408591511
22.56,0.05929872668515559
22.64,0.05842955754637262
22.72,0.05770552246655965
22.8,0.05713278445271825
22.88,0.05664862714483383
22.96,0.05614078247446473
23.04,0.05548701182944287
23.12,0.05459980281442713
23.2,0.05345896601163996
23.28,0.05211983619683558
23.36,0.050694718676005696
23.44,0.04931587886745724
23.52,0.04809505639451997
23.6,0.047094400572947684
23.68,0.04631740593736869
23.76,0.04571937924661356
23.84,0.045229677937701995
23.92,0.044775447574774474
24.0,0.044298993714961724
24.080000000000002,0.04376588430189271
24.16,0.04316527319970322
24.240000000000002,0.042505790194545215
24.32,0.041809685190214295
24.400000000000002,0.04110624126675687
24.48,0.040424431457747705
24.560000000000002,0.039785083337908256
24.64,0.03919394459964613
24.72,0.03863792707174661
24.8,0.03808660534208579
24.88,0.03749966251071498
24.96,0.03683900059778423
25.04,0.03608251890285863
25.12,0.03523576946361376
25.2,0.03433804818563286
25.28,0.03346077083151161
25.36,0.03269776175570149
25.44,0.03214886912497518
25.52,0.0318997749710924
25.6,0.03200184152189532
25.68,0.03245627061247346
25.76,0.03320663627860408
25.84,0.034142756990913965
25.92,0.03511672947880161
26.0,0.035968937762214256
26.080000000000002,0.03655873303575862
26.16,0.03679242015052875
26.240000000000002,0.036641234888829574
26.32,0.036144471689210915
26.400000000000002,0.035397124061734904
26.48,0.03452586392589041
26.560000000000002,0.03366032790122994
26.64,0.03290746564406631
26.72,0.0323350204330471
26.8,0.031966814097344746
26.88,0.03178868617112509
26.96,0.03176102126555099
27.04,0.0318326835518186
27.12,0.03195201047142326
27.2,0.032072691615662716
27.28,0.03215483186689016
27.36,0.03216329145970489
27.44,0.032065990572824894
27.52,0.03183430160439462
27.6,0.03144634329387523
27.68,0.030892463913887412
27.76,0.030180939093940762
27.84,0.02934132534991439
27.92,0.028423306663644208
28.0,0.027490287610699937
28.080000000000002,0.02660900180405943
28.16,0.025838143141088482
28.240000000000002,0.02521953283149431
28.32,0.024774177848444427
28.400000000000002,0.02450327187079048
28.48,0.02439202542290447
28.560000000000002,0.024413478976221845
28.64,0.024530569380147985
28.72,0.024696892887802316
28.8,0.024858330010606222
28.88,0.02495776085494245
28.96,0.024943409983105104
29.04,0.024778976849090913
29.12,0.024452111098607444
29.2,0.023977918677156037
29.28,0.02339590552504402
29.36,0.02276109887383025
29.44,0.022131906060594543
29.52,0.02155796213345423
29.6,0.021070854339519367
29.68,0.020679652226469215
29.76,0.020372017983323713
29.84,0.020120468482933713
29.92,0.019892144237114155
30.0,0.01965940546895563
30.080000000000002,0.019408145362817132
30.16,0.01914129150455654
30.240000000000002,0.018876570049396635
30.32,0.018639674510025035
30.400000000000002,0.018455603079742033
30.48,0.018341347625173757
30.560000000000002,0.018302176104973606
30.64,0.018331979675171146
30.72,0.018416456879113138
30.8,0.018537043774461803
30.88,0.018673726083271218
30.96,0.01880589338404285
31.04,0.018911621825881013
31.12,0.018966643269600233
31.2,0.018944476409488365
31.28,0.018818754538892736
31.36,0.018567885766446017
31.44,0.018181126675648418
31.52,0.017664279914919086
31.6,0.017042871605933676
31.68,0.016361064316715232
31.76,0.015675732622936967
31.84,0.015046765309801176
31.92,0.014526164433183756
32.0,0.014149212288395722
32.08,0.01393044383285302
32.160000000000004,0.013865474372844314
32.24,0.013937515660391612
32.32,0.014125594724176611
32.4,0.014410880461438156
32.480000000000004,0.014778438682479387
32.56,0.015213839099255975
32.64,0.015696471398169647
32.72,0.016193169406430896
32.8,0.01665601493072369
32.88,0.01702677760406715
32.96,0.017247798374820635
33.04,0.017276243686679026
33.12,0.017096747335422453
33.2,0.016727441967870127
33.28,0.01621646803221338
33.36,0.015629533411258667
33.44,0.015032588120342229
33.52,0.014475670985859588
33.6,0.01398356118919138
33.68,0.013556152929214627
33.76,0.013177603150345213
33.84,0.012829911788335927
33.92,0.012505070146386734
34.0,0.012210807830067906
34.08,0.011967811242129235
34.160000000000004,0.011799848843501827
34.24,0.011721085624726636
34.32,0.011725934151310343
34.4,0.011785745808742358
34.480000000000004,0.011853976745185981
34.56,0.011878239106897302
34.64,0.011815109187158994
34.72,0.01164264649835268
34.800000000000004,0.011366555600178272
34.88,0.011018312853503728
34.96,0.010646372424947424
35.04,0.010303679367402785
35.12,0.010035463556554363
35.2,0.009870604231775628
35.28,0.009818223359649915
35.36,0.00986931389353173
35.44,0.010001784379020742
35.52,0.010186678671152943
35.6,0.010393568072646346
35.68,0.010594005200917285
35.76,0.01076307747988027
35.84,0.010880022797492709
35.92,0.010929162027277879
36.0,0.010901910139855314
36.08,0.010799572863575456
36.160000000000004,0.010635568724432835
36.24,0.010435266845000488
36.32,0.01023217276127055
36.4,0.010060604108596296
36.480000000000004,0.009946665046755995
36.56,0.00990043675381334
36.64,0.009912243062137728
36.72,0.00995455210261308
36.800000000000004,0.009989060539741851
36.88,0.009976654077697843
36.96,0.00988704845866694
37.04,0.009705322969775602
37.12,0.009433979997294695
37.2,0.009090872099093095
37.28,0.008704557472254692
37.36,0.008308946136773444
37.44,0.007938570956303532
37.52,0.00762493922667726
37.6,0.00739374067446172
37.68,0.00726251573709715
37.76,0.007238673597941771
37.84,0.0073181866661775315
37.92,0.0074855404409968325
38.0,0.007715408720662772
38.08,0.007976096716230088
38.160000000000004,0.008234244262649671
38.24,0.008459841610444323
38.32,0.008630462323054875
38.4,0.008733843598541333
38.480000000000004,0.008768508154148858
38.56,0.008742871205919147
38.64,0.00867397792758892
38.72,0.008587435356821077
38.800000000000004,0.008520080787045579
38.88,0.00852640323466566
38.96,0.00868866449102934
39.04,0.009128959482923303
39.12,0.01001906111532722
39.2,0.011581150443412711
39.28,0.014070605602317356
39.36,0.017732979488147685
39.44,0.022733302638498834
39.52,0.029067445003543267
39.6,0.03647956169470699
39.68,0.044419958737294825
39.76,0.052076012660981386
39.84,0.05849048705289921
39.92,0.06275019429270494
40.0,0.06419575329147258
40.08,0.06258627563889807
40.160000000000004,0.05816215517807623
40.24,0.05158327327052115
40.32,0.043764409296441195
40.4,0.03566437965293539
40.480000000000004,0.02809560755597344
40.56,0.02160447814326855
40.64,0.01644057986157828
40.72,0.012600849272849622
40.800000000000004,0.00991537749716497
40.88,0.0081392012398323
40.96,0.00702460734478882
41.04,0.006363362010820745
41.12,0.006000879939341967
41.2,0.005831304931282039
41.28,0.005783889858943119
41.36,0.00580891026152068
41.44,0.005867807448823397
41.52,0.0059288705061247325
41.6,0.00596732024065343
41.68,0.005967425720253372
41.76,0.00592422485358421
41.84,0.005843252891226595
41.92,0.005737934134586575
42.0,0.005625425972044639
42.08,0.005522309067084526
42.160000000000004,0.005441451654556984
42.24,0.005390781782952116
42.32,0.005373892907447578
42.4,0.00539171661664721
42.480000000000004,0.005444158629762611
42.56,0.005530711971028206
42.64,0.005649597134570004
42.72,0.005795758666559837
42.800000000000004,0.005958774347722632
42.88,0.006122060723993258
42.96,0.00626444077746576
43.04,0.006364199738061725
43.12,0.00640455701319606
43.2,0.006378604409895141
43.28,0.0062917031802435215
43.36,0.0061602162775500685
43.44,0.006006910727553547
43.52,0.005854713952331047
43.6,0.005721106379864413
43.68,0.005615021045775582
43.76,0.005536941925614902
43.84,0.005481541646387526
43.92,0.005441304182281469
44.0,0.0054094922965804496
44.08,0.0053814774502560295
44.160000000000004,0.005354441451200865
44.24,0.0053262625391541345
44.32,0.005294645696760454
44.4,0.005257198163081235
44.480000000000004,0.005212447520524964
44.56,0.005161160511547762
44.64,0.005107081372006956
44.72,0.005056468368356392
44.800000000000004,0.0050164039275982925
44.88,0.004992470963635087
44.96,0.004986725789297101
45.04,0.004996811976006477
45.12,0.005016607783472245
45.2,0.005038193077256357
45.28,0.005054417224823263
45.36,0.005061142256252843
45.44,0.0050583877853693695
45.52,0.005050032783148412
45.6,0.005042251223989942
45.68,0.0050412739026715545
45.76,0.005051244123933062
45.84,0.005072847250654662
45.92,0.005103113368477973
46.0,0.005136425332428075
46.08,0.005166404174750047
46.160000000000004,0.005188059911386093
46.24,0.005199456869601762
46.32,0.005202225994553377
46.4,0.005200608680097883
46.480000000000004,0.005199280912427835
46.56,0.005200783182518747
46.64,0.005203683805669861
46.72,0.005202408337458284
46.800000000000004,0.005188980163416323
46.88,0.0051560235528428505
46.96,0.00509972936096878
47.04,0.005021440979580179
47.12,0.004927142541614974
47.2,0.004825119772277949
47.28,0.004722912556452078
47.36,0.004624962441881174
47.44,0.004531958779374033
47.52,0.004442034856493894
47.6,0.004353094881171006
47.68,0.0042650690656128275
47.76,0.004180986039758281
47.84,0.004106334408347893
47.92,0.004046972306906878
48.0,0.004006491804638863
48.08,0.003984195912424791
48.160000000000004,0.003974616795773111
48.24,0.00396890211017702
48.32,0.003957667906372229
48.4,0.003934349293224001
48.480000000000004,0.0038978984953790506
48.56,0.0038539647654016636
48.64,0.0038143505451602305
48.72,0.0037953418351874962
48.800000000000004,0.003816160696752599
48.88,0.0038990051716573243
48.96,0.004071731881424602
49.04,0.004373137263190795
49.120000000000005,0.0048591349668686105
49.2,0.005606319009214145
49.28,0.006708200469781149
49.36,0.008259819598211739
49.44,0.010329329674824105
49.52,0.012920550140142657
49.6,0.01593693113010594
49.68,0.019161892428281313
49.76,0.022269716588681817
49.84,0.02487329551235132
49.92,0.02660167906723675
50.0,0.027186809537174377
50.08,0.026531771811206094
50.160000000000004,0.024736855710171136
50.24,0.022074012401336364
50.32,0.018918817509325746
50.4,0.015663466733145427
50.480000000000004,0.01263849143533554
50.56,0.010064004693624926
50.64,0.008037816852120069
50.72,0.006554402088154807
50.800000000000004,0.005540736321968023
50.88,0.00489412820035463
50.96,0.004511561249086211
51.04,0.004306386237066875
51.120000000000005,0.004213496223640298
51.2,0.0041869558008167385
51.28,0.004194511711942128
51.36,0.004212363057264912
51.44,0.004221978120310943
51.52,0.0042092695810880265
51.6,0.00416539811657568
51.68,0.004087971201251215
51.76,0.0039814384740621735
51.84,0.003855969614403555
51.92,0.0037248391710618684
52.0,0.003601048251519346
52.08,0.0034942974187942254
52.160000000000004,0.0034093243422305807
52.24,0.0033460780243103633
52.32,0.003301459820545345
52.4,0.0032717489570608955
52.480000000000004,0.003254612419036325
52.56,0.003249860073439052
52.64,0.0032587182731187714
52.72,0.003282085009354077
52.800000000000004,0.0033186989245060543
52.88,0.0033642040921218154
52.96,0.0034116990167082925
53.04,0.0034536825571297855
53.120000000000005,0.003484637268848789
53.2,0.003503123158063587
53.28,0.0035123808864209608
53.36,0.0035190427548220096
53.44,0.003530378450968246
53.52,0.0035511860986663264
53.6,0.0035816445634484885
53.68,0.003617049402751013
53.76,0.0036495293681785895
53.84,0.00367096730068179
53.92,0.003675841258781846
54.0,0.0036627909504620654
54.08,0.0036343383742919243
54.160000000000004,0.003595034956218248
54.24,0.003548973543804725
54.32,0.003497812266851678
54.4,0.003440163289109761
54.480000000000004,0.0033725799813110737
54.56,0.003291716523740405
54.64,0.003196790353041303
54.72,0.0030913846253392357
54.800000000000004,0.0029838772068830955
54.88,0.002886258486071435
54.96,0.0028116339640901775
55.04,0.0027711322652828815
