Frequency,PSD
6.0,0.43432856941329834
6.08,0.44058406384457577
6.16,0.4517004595736556
6.24,0.4655228799542108
6.32,0.4797207868868169
6.4,0.4919589309009087
6.48,0.5001335704916858
6.5600000000000005,0.5032207773515552
6.640000000000001,0.502333519550771
6.72,0.5008413785387662
6.8,0.5029430237412401
6.88,0.5114081996283775
6.96,0.5259350721794079
7.04,0.5431050406181233
7.12,0.557906559480392
7.2,0.5660559166650507
7.28,0.5660397847688701
7.36,0.5598600655030543
7.44,0.5520081303984361
7.5200000000000005,0.5471943977544259
7.6000000000000005,0.5481704732163025
7.68,0.554855962253535
7.76,0.5649359175867107
7.84,0.5750305000379529
7.92,0.5814381178895587
8.0,0.580389061968465
8.08,0.568652966568053
8.16,0.545041906919727
8.24,0.5120164924051591
8.32,0.47582206632071933
8.4,0.44450427873094134
8.48,0.42493594929410017
8.56,0.4207316325425378
8.64,0.431953094361251
8.72,0.4560158227571156
8.8,0.48869749337685287
8.88,0.5248329030978038
8.96,0.5591400117832591
9.040000000000001,0.5876313711902358
9.120000000000001,0.6092007371381735
9.200000000000001,0.6262568700774546
9.28,0.6437528365535844
9.36,0.667400941142605
9.44,0.7026704155666263
9.52,0.7550485092879136
9.6,0.8298491417513947
9.68,0.9292023527488337
9.76,1.0464674804808178
9.84,1.1624564120629126
9.92,1.2490241983529586
10.0,1.2809053700212196
10.08,1.2491824654411001
10.16,1.166795149122627
10.24,1.061937833791571
10.32,0.9643217405453274
10.4,0.8934881219702273
10.48,0.8547248012719411
10.56,0.8417634241671873
10.64,0.8424167847308572
10.72,0.844279240794682
10.8,0.8392082406560151
10.88,0.8255733144831485
10.96,0.8073215514101771
11.040000000000001,0.7902088927058215
11.120000000000001,0.7774510373382332
11.200000000000001,0.7676488199437583
11.28,0.7562672635176717
11.36,0.7393630895786863
11.44,0.7167850897097445
11.52,0.6928174365333186
11.6,0.6742836695937646
11.68,0.6675670370788899
11.76,0.6759256331721076
11.84,0.6977136992113397
11.92,0.7258826787651294
12.0,0.7494022675839745
12.08,0.7568920078275099
12.16,0.7413100817064111
12.24,0.7032079948882364
12.32,0.6504792376561588
12.4,0.594719689638919
12.48,0.5464379883920902
12.56,0.5116951528834979
12.64,0.4913767514390622
12.72,0.48257894572887117
12.8,0.48070400374284405
12.88,0.48106989041620263
12.96,0.4797035389615606
13.040000000000001,0.47378268348648805
13.120000000000001,0.4622768576418742
13.200000000000001,0.44665952751950033
13.280000000000001,0.43086749910507477
13.36,0.41986552439408054
13.44,0.4172366901849043
13.52,0.4231560984878135
13.6,0.4339896438991684
13.68,0.44372268621368316
13.76,0.4463790795094908
13.84,0.4382345188747214
13.92,0.4189577223884014
14.0,0.39143595006706056
14.08,0.3605868162618303
14.16,0.33171585658016534
14.24,0.30894471444678306
14.32,0.29409760927394607
14.4,0.2863504517360437
14.48,0.28282378579091527
14.56,0.2799656679847
14.64,0.27512904073011496
14.72,0.26756274170303823
14.8,0.2583296835425538
14.88,0.24928760754392232
14.96,0.2418291179042315
15.040000000000001,0.2362110255630806
15.120000000000001,0.23186826634035151
15.200000000000001,0.2283553395079359
15.280000000000001,0.2260607339881465
15.36,0.22603736308668854
15.44,0.2290384540999585
15.52,0.23451526088516933
15.6,0.24039068256709356
15.68,0.24386708341931684
15.76,0.2427993366906729
15.84,0.23677799868235005
15.92,0.22726748706454336
16.0,0.2167695795130944
16.080000000000002,0.20758742116843537
16.16,0.2009435134288355
16.240000000000002,0.19688474105147138
16.32,0.19486423368057731
16.4,0.1944977334167008
16.48,0.1959601121149282
16.56,0.19977803584280085
16.64,0.20618477520226614
16.72,0.21448996441310714
16.8,0.22290911609769626
16.88,0.22899915431893675
16.96,0.2304721887531766
17.04,0.22598247726073578
17.12,0.21557183094066684
17.2,0.20064595561492643
17.28,0.18349264068335744
17.36,0.16649310453218907
17.44,0.15136288745545423
17.52,0.13881367409411424
17.6,0.12877438451197634
17.68,0.12090763789086952
17.76,0.11499017389931239
17.84,0.11094102761606031
17.92,0.10862117829081246
18.0,0.10766074282737031
18.080000000000002,0.1074513338668863
18.16,0.10727875665187336
18.240000000000002,0.10652053322658443
18.32,0.10485290687591739
18.400000000000002,0.10240142501989119
18.48,0.09973582536353798
18.56,0.09764636431907028
18.64,0.09677121666606434
18.72,0.09727180173207879
18.8,0.09874774360386003
18.88,0.10043345292652442
18.96,0.10154826046912657
19.04,0.10161756560501375
19.12,0.10065497259396941
19.2,0.09919180566209479
19.28,0.09818224598739714
19.36,0.09882281056683472
19.44,0.10234120790618548
19.52,0.10978622586151224
19.6,0.12174585205571514
19.68,0.13786319398688318
19.76,0.15622800233861409
19.84,0.17314317842424826
19.92,0.1839079398571506
20.0,0.18466746858917207
20.080000000000002,0.17436597603147294
20.16,0.1554267472908924
20.240000000000002,0.1325905529748559
20.32,0.11072081335049387
20.400000000000002,0.09302826639131138
20.48,0.08057940735036304
20.56,0.07288021480939497
20.64,0.06877011009902881
20.72,0.06704791586366038
20.8,0.06671401852807195
20.88,0.06699717342491368
20.96,0.06735582466831777
21.04,0.0675300320742595
21.12,0.06759601967101458
21.2,0.06791915785780295
21.28,0.06894972297567183
21.36,0.07092521714102627
21.44,0.07363620319856526
21.52,0.07640010167973103
21.6,0.07827879919189931
21.68,0.07844958993685265
21.76,0.07656360237466271
21.84,0.07292160249646182
21.92,0.06836271102877431
22.0,0.06389339635336945
22.080000000000002,0.06023904408848639
22.16,0.057574467732416125
22.240000000000002,0.0555938994246017
22.32,0.05385567469326721
22.400000000000002,0.05215293594853363
22.48,0.05067007928990127
22.56,0.04986717553169425
22.64,0.05022468612280798
22.72,0.052028339359771386
22.8,0.05527612767324232
22.88,0.05967060030108377
22.96,0.06463952842544794
23.04,0.06939959514852022
23.12,0.07311899326573683
23.2,0.07516389394045786
23.28,0.07530761481897341
23.36,0.07377823899448024
23.44,0.07112857658316978
23.52,0.06800900878443208
23.6,0.06493716013616094
23.68,0.062138207182439696
23.76,0.059520043002882855
23.84,0.056806853813423513
23.92,0.053757574145821586
24.0,0.05032509673915175
24.080000000000002,0.046664702289570925
24.16,0.04303718919020831
24.240000000000002,0.03972582767803197
24.32,0.03702111583408821
24.400000000000002,0.03521472798623056
24.48,0.0345246604897649
24.560000000000002,0.03496495106183787
24.64,0.03626040944143415
24.72,0.03788948360597161
24.8,0.03924129666013201
24.88,0.039799091619085736
24.96,0.03927244091972712
25.04,0.03765983586780357
25.12,0.0352562735550223
25.2,0.03260076060450718
25.28,0.03033679057391543
25.36,0.02899653978955783
25.44,0.028801070259749068
25.52,0.029602122436742692
25.6,0.03101268286005807
25.68,0.032635514826938654
25.76,0.03422645172274078
25.84,0.03569275868396306
25.92,0.03696972538134009
26.0,0.03791375848481291
26.080000000000002,0.03831998961751176
26.16,0.03805388020981943
26.240000000000002,0.037187165020241095
26.32,0.0360260848184656
26.400000000000002,0.03500172015717469
26.48,0.03448345563950745
26.560000000000002,0.034613481426572126
26.64,0.035236801976261424
26.72,0.03595342993219969
26.8,0.03627604822805765
26.88,0.03583793825143892
26.96,0.034562926761480706
27.04,0.032707868459371736
27.12,0.030744218008524823
27.2,0.029137097507418643
27.28,0.028143614554360773
27.36,0.02773684968558721
27.44,0.027678740858733904
27.52,0.02767615351385625
27.6,0.027520468552070246
27.68,0.027145582956860828
27.76,0.026605930715794576
27.84,0.026022635310922512
27.92,0.025542487991504267
28.0,0.025313564895287768
28.080000000000002,0.025447730704735858
28.16,0.025953074461594863
28.240000000000002,0.026670896128993697
28.32,0.027286170802525857
28.400000000000002,0.027445507741555186
28.48,0.026928235370114063
28.560000000000002,0.025758073633498618
28.64,0.024181973288827353
28.72,0.022546357645299688
28.8,0.021165303029471484
28.88,0.02024487444632419
28.96,0.019857445551763313
29.04,0.01993633300816115
29.12,0.02029365423611726
29.2,0.020686259104686265
29.28,0.020922686255441945
29.36,0.02095485169839702
29.44,0.02089381469440356
29.52,0.02093789653035064
29.6,0.02125607039887822
29.68,0.021887851749284697
29.76,0.022703975685677714
29.84,0.02344350209796081
29.92,0.023815104660025753
30.0,0.02362296110728877
30.080000000000002,0.02285832495367636
30.16,0.021705940497313815
30.240000000000002,0.02045776533072085
30.32,0.01938086495465559
30.400000000000002,0.018611871688631952
30.48,0.018128947194459625
30.560000000000002,0.017802185510119282
30.64,0.017480081029817532
30.72,0.017059071365040722
30.8,0.01650834672512224
30.88,0.015861143736633308
30.96,0.015203362308820308
31.04,0.014674441957310554
31.12,0.014461964453924898
31.2,0.014756288481108649
31.28,0.015655507700044223
31.36,0.01706171433255799
31.44,0.018647183081494278
31.52,0.01995052684997058
31.6,0.020579255560534016
31.68,0.02040088598581007
31.76,0.01958952990774108
31.84,0.018494047593202535
31.92,0.01742977415303306
32.0,0.01654343486567892
32.08,0.01582066735580888
32.160000000000004,0.015184909838460985
32.24,0.014588008616015986
32.32,0.014038086755461513
32.4,0.013579573448788648
32.480000000000004,0.013266517548743436
32.56,0.01315037756208401
32.64,0.013275605842338174
32.72,0.013667758093256618
32.8,0.014308948556798408
32.88,0.015111563175647795
32.96,0.01591199374859721
33.04,0.01650330035480884
33.12,0.01670574279254017
33.2,0.016446024044316537
33.28,0.01580090951305224
33.36,0.014974988673981733
33.44,0.01421882209655542
33.52,0.013726659734367892
33.6,0.013562298427886532
33.68,0.013647168713068657
33.76,0.013815342884333452
33.84,0.013904952712373653
33.92,0.013831833346719648
34.0,0.013602500097122387
34.08,0.013269953998011553
34.160000000000004,0.012878374579058143
34.24,0.012440511740620688
34.32,0.0119512792269534
34.4,0.011409177239625964
34.480000000000004,0.010822626862365915
34.56,0.010203538194499543
34.64,0.009562962813099532
34.72,0.008915783550581494
34.800000000000004,0.00828882359273111
34.88,0.007723088566876876
34.96,0.007266348428827071
35.04,0.006960600897795027
35.12,0.006833443190704598
35.2,0.006898364788582778
35.28,0.007158809792580201
35.36,0.00760543583880768
35.44,0.008204156517224897
35.52,0.008887957957255315
35.6,0.009569816644538981
35.68,0.010177151531434645
35.76,0.010683192274458504
35.84,0.011104314312155973
35.92,0.01145778265437146
36.0,0.01171276545860592
36.08,0.011782261356335595
36.160000000000004,0.011575484362739492
36.24,0.011079535111181704
36.32,0.010409656154863643
36.4,0.009785477090111508
36.480000000000004,0.009440570596674247
36.56,0.009513685737286049
36.64,0.009976793850898103
36.72,0.01063441050270843
36.800000000000004,0.01119869317540484
36.88,0.011412564208312739
36.96,0.011163711519678304
37.04,0.010526602224271469
37.12,0.009707051359130466
37.2,0.008926432820741754
37.28,0.008319605110439773
37.36,0.007901124866692928
37.44,0.007600885360965273
37.52,0.00733052831169128
37.6,0.007038637321869037
37.68,0.006732730253670986
37.76,0.006467392517000754
37.84,0.006311282780770151
37.92,0.006311503538023689
38.0,0.0064717418779069915
38.08,0.0067506804955188415
38.160000000000004,0.007075480777920791
38.24,0.00736076990719698
38.32,0.007528298462176572
38.4,0.007527408921912166
38.480000000000004,0.007353322456659877
38.56,0.00705341570607544
38.64,0.006713295227213062
38.72,0.006427018621238576
38.800000000000004,0.006266757997086335
38.88,0.006265141339619846
38.96,0.006412894284081368
39.04,0.006668473608392804
39.12,0.006980399393932845
39.2,0.007331614812987632
39.28,0.007821340990848406
39.36,0.00879391090413634
39.44,0.010984785755108023
39.52,0.015564971661201216
39.6,0.023873814376090628
39.68,0.036685881027798795
39.76,0.05319883889315757
39.84,0.07041800108916546
39.92,0.08373843050632046
40.0,0.0888501208213044
40.08,0.08395342151304998
40.160000000000004,0.07074968746413884
40.24,0.053469288076796725
40.32,0.036681757363845144
40.4,0.023413439277495077
40.480000000000004,0.01456545939962333
40.56,0.009497717656144617
40.64,0.006991178097488014
40.72,0.005937656943133395
40.800000000000004,0.005589815445047833
40.88,0.005531740522733454
40.96,0.005572900893244682
41.04,0.0056659667059688786
41.12,0.0058539459900699715
41.2,0.006218255175436662
41.28,0.00681274165578733
41.36,0.007599389936280851
41.44,0.008423121366201249
41.52,0.009055119499285672
41.6,0.009293091394139762
41.68,0.009060847909653991
41.76,0.008442396891901079
41.84,0.007631199365717468
41.92,0.006834827832187629
42.0,0.006196760590799319
42.08,0.005770016099419682
42.160000000000004,0.005536271358264665
42.24,0.005443304066979613
42.32,0.0054371305404993546
42.4,0.005478731246847976
42.480000000000004,0.005547092530438576
42.56,0.00563556857501498
42.64,0.005746577638683138
42.72,0.005885013241457545
42.800000000000004,0.006050198972993434
42.88,0.006229840576019606
42.96,0.00640044806626266
43.04,0.00653403664932523
43.12,0.006606229006803801
43.2,0.006602148361103039
43.28,0.006521119523193171
43.36,0.00638153155821245
43.44,0.006221509122745499
43.52,0.006087443771479752
43.6,0.0060097926076611895
43.68,0.0059804012073194895
43.76,0.0059519842480638355
43.84,0.005866652612803438
43.92,0.005695602181056041
44.0,0.005460371888793116
44.08,0.0052208898249527565
44.160000000000004,0.005042974060819813
44.24,0.004971021648906317
44.32,0.005019938104154631
44.4,0.005179968553246789
44.480000000000004,0.005420860167368547
44.56,0.005691415762494713
44.64,0.005922450705479771
44.72,0.006041768366833542
44.800000000000004,0.00599954038910111
44.88,0.005791710330096157
44.96,0.005466478449613829
45.04,0.0051067439766687775
45.12,0.004795761026545678
45.2,0.00458529809762586
45.28,0.004485163641274673
45.36,0.004477979196600597
45.44,0.004544796435667839
45.52,0.004681381191792601
45.6,0.004895945197287968
45.68,0.005194624682831163
45.76,0.005566332455634489
45.84,0.005973107905109555
45.92,0.006347714283987185
46.0,0.006603185905390309
46.08,0.006659901633098144
46.160000000000004,0.006484011235744535
46.24,0.0061145523309299316
46.32,0.005656111503055117
46.4,0.005236142029730346
46.480000000000004,0.0049518898099608875
46.56,0.004837097181373583
46.64,0.004861017197707344
46.72,0.004951153567530663
46.800000000000004,0.005023733667239147
46.88,0.005011132498200822
46.96,0.004881431026987522
47.04,0.004646070126693262
47.12,0.004351810931241644
47.2,0.0040586089219358384
47.28,0.0038133137394127242
47.36,0.003632673948500715
47.44,0.0035038276708591713
47.52,0.003399957104463832
47.6,0.003300711718700628
47.68,0.003206223939496416
47.76,0.0031388332961807854
47.84,0.003133078019780175
47.92,0.0032186267868131863
48.0,0.003402859426581209
48.08,0.0036608325774930423
48.160000000000004,0.003938910942426002
48.24,0.004172426797277792
48.32,0.004309615324524212
48.4,0.004329760889349391
48.480000000000004,0.004246681573940175
48.56,0.004097262832812726
48.64,0.003923107798975006
48.72,0.003756171355070309
48.800000000000004,0.0036143863060159563
48.88,0.003504528773907393
48.96,0.0034252235143307497
49.04,0.003367937256930631
49.120000000000005,0.0033228669078838764
49.2,0.003299812552415831
49.28,0.0033684840918736005
49.36,0.003713244021317421
49.44,0.004683809706137378
49.52,0.006796523882843745
49.6,0.010608671665927813
49.68,0.016407042146128273
49.76,0.02378697037419667
49.84,0.03140302918418585
49.92,0.03723160512307578
50.0,0.03940147246604044
50.08,0.037156632166743614
50.160000000000004,0.031283718471167066
50.24,0.02367890511399899
50.32,0.016377853641863574
50.4,0.010719324932902431
50.480000000000004,0.0070835870804254394
50.56,0.00515085555652205
50.64,0.004333737111699692
50.72,0.004094370190485374
50.800000000000004,0.004067814428745393
50.88,0.004057091602333862
50.96,0.0039861338272595415
51.04,0.0038563521230763897
51.120000000000005,0.0037142394408648527
51.2,0.003622495150919121
51.28,0.0036303447598836844
51.36,0.0037487088459917453
51.44,0.003941873568240294
51.52,0.004142389792773458
51.6,0.004282059609353097
51.68,0.004320390307503358
51.76,0.0042540528946722386
51.84,0.004105710424943372
51.92,0.0039047026241633125
52.0,0.0036738057093855473
52.08,0.003427317478858485
52.160000000000004,0.0031765025738945615
52.24,0.002935674102127854
52.32,0.0027245943844209043
52.4,0.0025663879227610974
52.480000000000004,0.0024826174311874455
52.56,0.0024881692208737283
52.64,0.002587961748216536
52.72,0.0027754182899066915
52.800000000000004,0.003030777169130928
52.88,0.003318385220214522
52.96,0.003586588286925681
53.04,0.0037768672392377977
53.120000000000005,0.003844147511113051
53.2,0.003779145387456588
53.28,0.003617336900586265
53.36,0.003426358364956492
53.44,0.0032785032068614233
53.52,0.003223136561107116
53.6,0.003270141135735087
53.68,0.003388186016278945
53.76,0.003518021449400513
53.84,0.003597843863869521
53.92,0.0035906215721955123
54.0,0.00349818838636522
54.08,0.003353459578263251
54.160000000000004,0.0031976764469038386
54.24,0.0030597344867846045
54.32,0.0029500640194323217
54.4,0.002867983668507711
54.480000000000004,0.002811808750327869
54.56,0.0027821395203353437
54.64,0.002777485294107044
54.72,0.0027892243943800805
54.800000000000004,0.0028031809277360258
54.88,0.002807957587782273
54.96,0.002802551575522152
55.04,0.0027954693595966945
