Frequency,PSD
6.057142857142857,0.202927619044091
6.171428571428571,0.2045308578295182
6.285714285714286,0.2071330949697347
6.3999999999999995,0.20995793593442866
6.514285714285714,0.2126245270746199
6.628571428571428,0.21545059525468896
6.742857142857143,0.21925847784536484
6.857142857142857,0.22479450764304437
6.9714285714285715,0.23215840373857113
7.085714285714285,0.24065664422043928
7.2,0.24921628290041248
7.314285714285714,0.25711372661830534
7.428571428571428,0.26454547420873153
7.542857142857143,0.27264001578320957
7.657142857142857,0.2828469483526769
7.771428571428571,0.296058930074485
7.885714285714285,0.31205624087527156
8.0,0.3296873300906109
8.114285714285714,0.34765553846792857
8.228571428571428,0.36528775194221286
8.342857142857143,0.3827028842145363
8.457142857142857,0.40040079749316626
8.571428571428571,0.4188692043183583
8.685714285714285,0.4387294999507031
8.799999999999999,0.4612707083020774
8.914285714285715,0.4886971307021862
9.028571428571428,0.5236498637821336
9.142857142857142,0.5683172716555615
9.257142857142856,0.6238803069025075
9.371428571428572,0.6906361257209346
9.485714285714286,0.7683144130553978
9.6,0.8557542610283038
9.714285714285714,0.9497123585324331
9.828571428571427,1.0436441510178316
9.942857142857143,1.1278086100350684
10.057142857142857,1.1913560755158874
10.17142857142857,1.225592924832676
10.285714285714285,1.2266156760239584
10.4,1.1959097760183441
10.514285714285714,1.1389704527085354
10.628571428571428,1.0631796833720313
10.742857142857142,0.976121402813353
10.857142857142858,0.884635598001767
10.971428571428572,0.7942955533372237
11.085714285714285,0.7090878260320541
11.2,0.6313695842273772
11.314285714285713,0.5621290094563938
11.428571428571429,0.5013297371943228
11.542857142857143,0.44813145282981887
11.657142857142857,0.40106671528323656
11.77142857142857,0.3584114200157966
11.885714285714286,0.3187813639258096
12.0,0.28166075155815823
12.114285714285714,0.24750177253760647
12.228571428571428,0.21730926953897114
12.342857142857142,0.19198076895486846
12.457142857142857,0.17180714550833776
12.571428571428571,0.1563778590579781
12.685714285714285,0.14484339130251914
12.799999999999999,0.13629223590445472
12.914285714285715,0.13000712017614763
13.028571428571428,0.12551849706617715
13.142857142857142,0.12253106956653037
13.257142857142856,0.12084569312031593
13.371428571428572,0.12032248250270271
13.485714285714286,0.1208290559048611
13.6,0.1221130621080449
13.714285714285714,0.12365028893041125
13.828571428571427,0.12462611066971008
13.942857142857143,0.12416556851357154
14.057142857142857,0.1217397612118231
14.17142857142857,0.11750850147516591
14.285714285714285,0.11236987172322985
14.4,0.1076692196121278
14.514285714285714,0.10472182366177087
14.628571428571428,0.10438290908782008
14.742857142857142,0.10683243771387196
14.857142857142856,0.11160604858994587
14.971428571428572,0.11779035393453549
15.085714285714285,0.12426284877267846
15.2,0.12989358837953097
15.314285714285713,0.13369587671499547
15.428571428571429,0.13496061027539202
15.542857142857143,0.13340086820469604
15.657142857142857,0.12928311697719228
15.77142857142857,0.12347501828870192
15.885714285714284,0.11733862529857322
16.0,0.11244986404838783
16.114285714285714,0.11020376201001332
16.228571428571428,0.1114267818876165
16.34285714285714,0.11612869309405442
16.457142857142856,0.1234806505076104
16.57142857142857,0.1320279811730674
16.685714285714287,0.14007308939373336
16.8,0.1461211299450868
16.914285714285715,0.14926885671510573
17.02857142857143,0.14942328558487183
17.142857142857142,0.14726487223631146
17.257142857142856,0.1439433255233801
17.37142857142857,0.14061398485895438
17.485714285714284,0.13802285919669946
17.599999999999998,0.13633325903633353
17.714285714285715,0.13524114677434748
17.82857142857143,0.13426022866839624
17.942857142857143,0.13300114393407486
18.057142857142857,0.1313324107843811
18.17142857142857,0.12939624895967874
18.285714285714285,0.12749341061275773
18.4,0.12587982195635428
18.514285714285712,0.12457430654217336
18.628571428571426,0.12331215600990164
18.742857142857144,0.1217103217810561
18.857142857142858,0.11955246844765988
18.97142857142857,0.11699064763510608
19.085714285714285,0.11450977360234499
19.2,0.11267706921669787
19.314285714285713,0.1118508510398537
19.428571428571427,0.11203424842686929
19.54285714285714,0.11294192771479022
19.657142857142855,0.11420522173173708
19.771428571428572,0.11556848032210144
19.885714285714286,0.11695652960367123
20.0,0.11838948138855505
20.114285714285714,0.11982485816065946
20.228571428571428,0.12105320029335619
20.34285714285714,0.12172903568500439
20.457142857142856,0.12151376562046441
20.57142857142857,0.12022150033667674
20.685714285714287,0.11786221158281067
20.8,0.11456316128603819
20.914285714285715,0.11044369531795137
21.02857142857143,0.10554471209624769
21.142857142857142,0.09986073072236523
21.257142857142856,0.0934400629361992
21.37142857142857,0.08646958624140383
21.485714285714284,0.07927458500155823
21.599999999999998,0.0722267600507533
21.714285714285715,0.06562058942604526
21.82857142857143,0.05960139917933385
21.942857142857143,0.054187942309554885
22.057142857142857,0.04935889603495971
22.17142857142857,0.04512926434716104
22.285714285714285,0.04156569958408206
22.4,0.03875019537796248
22.514285714285712,0.03673654450783936
22.628571428571426,0.0355269443869061
22.742857142857144,0.0350613706552714
22.857142857142858,0.03520586733428107
22.97142857142857,0.03574894374223979
23.085714285714285,0.036428950459087256
23.2,0.03699450818975757
23.314285714285713,0.03726621916206074
23.428571428571427,0.03716205944747053
23.54285714285714,0.03668061605755922
23.657142857142855,0.03587133787768797
23.771428571428572,0.03482131667520705
23.885714285714286,0.03365617689546872
24.0,0.03252681440822885
24.114285714285714,0.03156379307242435
24.228571428571428,0.03081678538020858
24.34285714285714,0.0302210913836867
24.457142857142856,0.029623121790632687
24.57142857142857,0.028860506553294186
24.685714285714283,0.027857922024342386
24.8,0.026688119222593214
24.914285714285715,0.025562656693994122
25.02857142857143,0.02474981519644614
25.142857142857142,0.024453994594053056
25.257142857142856,0.024714204523573376
25.37142857142857,0.025373856116215385
25.485714285714284,0.026138865593305714
25.599999999999998,0.026695281964449206
25.71428571428571,0.026829248381276795
25.82857142857143,0.026496635743356433
25.942857142857143,0.02581959535813534
26.057142857142857,0.02502147127606961
26.17142857142857,0.02433340876731467
26.285714285714285,0.023911606240966023
26.4,0.023796161029808974
26.514285714285712,0.023923179931927174
26.628571428571426,0.024175932822941407
26.742857142857144,0.02444101755072605
26.857142857142858,0.02463701807001919
26.97142857142857,0.024707897034135173
27.085714285714285,0.024602423765581034
27.2,0.024269006422550372
27.314285714285713,0.023675665075681643
27.428571428571427,0.022837549260269242
27.54285714285714,0.021826203725677402
27.657142857142855,0.02075194716623425
27.771428571428572,0.019733857532302706
27.885714285714286,0.018877999451154204
28.0,0.018270634111669286
28.114285714285714,0.01797605557882453
28.228571428571428,0.018025392066808074
28.34285714285714,0.018394707378453088
28.457142857142856,0.018986241836956626
28.57142857142857,0.019632570770275363
28.685714285714283,0.020134250438818318
28.8,0.02032167574817388
28.914285714285715,0.02011426265226471
29.02857142857143,0.019548240360729722
29.142857142857142,0.018760978398448046
29.257142857142856,0.01794283032993426
29.37142857142857,0.01728078639664079
29.485714285714284,0.016915601429035764
29.599999999999998,0.016921543732035436
29.71428571428571,0.01730531591205374
29.82857142857143,0.01801466599216177
29.942857142857143,0.018949619628299566
30.057142857142857,0.019976547071920793
30.17142857142857,0.02094934833865773
30.285714285714285,0.02173734474629029
30.4,0.02225061332902386
30.514285714285712,0.022451543160265867
30.628571428571426,0.022350178466780432
30.74285714285714,0.021991126082448388
30.857142857142858,0.021440402728236437
30.97142857142857,0.020773146467360486
31.085714285714285,0.02005911281291259
31.2,0.019347652006584407
31.314285714285713,0.018659750247532587
31.428571428571427,0.01799255497638387
31.54285714285714,0.017333621034920303
31.657142857142855,0.016677321169769742
31.77142857142857,0.016037927710323727
31.885714285714286,0.015456960597928265
32.0,0.015001379238183912
32.114285714285714,0.014747533712468591
32.22857142857143,0.014750493346746283
32.34285714285714,0.015009478615706168
32.457142857142856,0.015448482370533792
32.57142857142857,0.015927289417899733
32.68571428571428,0.016282326987948553
32.8,0.01637992180670789
32.91428571428571,0.01615827487982431
33.028571428571425,0.015641413706869823
33.14285714285714,0.014921954729807865
33.25714285714285,0.014121934717140957
33.371428571428574,0.01334879857662068
33.48571428571429,0.012665514634563498
33.6,0.012087365141621313
33.714285714285715,0.011603195552714279
33.82857142857143,0.011203420574748147
33.94285714285714,0.01089313548079127
34.05714285714286,0.010681602384234027
34.17142857142857,0.01055995167890258
34.285714285714285,0.010489802300462708
34.4,0.010416721409492605
34.51428571428571,0.010301166065038725
34.628571428571426,0.010144174670346714
34.74285714285714,0.00998881972552438
34.857142857142854,0.009897336380236283
34.97142857142857,0.009920770068576576
35.08571428571428,0.010079160283934087
35.199999999999996,0.01035790007690614
35.31428571428572,0.010714091108216977
35.42857142857143,0.011085790977317152
35.542857142857144,0.01140374499149499
35.65714285714286,0.011608463515280795
35.77142857142857,0.01167009440392253
35.885714285714286,0.011600807668481535
36.0,0.01144974539545705
36.114285714285714,0.011281399959525554
36.22857142857143,0.011150576861825072
36.34285714285714,0.011089162736235489
36.457142857142856,0.011109111099433678
36.57142857142857,0.011211903702721803
36.68571428571428,0.011390345544557319
36.8,0.011618384089005266
36.91428571428571,0.011839946440697252
37.028571428571425,0.011973943291989975
37.14285714285714,0.011942402351523287
37.25714285714285,0.01170973930274738
37.371428571428574,0.011309669110787686
37.48571428571429,0.010842253850040081
37.6,0.010441703812030419
37.714285714285715,0.01023096110902473
37.82857142857143,0.01028215060505375
37.94285714285714,0.010595408778400359
38.05714285714286,0.011100607835880051
38.17142857142857,0.011680422178626432
38.285714285714285,0.012206932253048945
38.4,0.01257765433594579
38.51428571428571,0.01273604234621122
38.628571428571426,0.012670264362232269
38.74285714285714,0.012397755818252115
38.857142857142854,0.011950874220980534
38.97142857142857,0.01137428352168975
39.08571428571428,0.010731518747655537
39.199999999999996,0.010107635288443648
39.31428571428571,0.009595836309939333
39.42857142857143,0.009268376099425728
39.542857142857144,0.009146773641518082
39.65714285714286,0.009191787030508242
39.77142857142857,0.009324077456770262
39.885714285714286,0.009467291453547785
40.0,0.009589489965097533
40.114285714285714,0.009718016431185798
40.22857142857143,0.009918414946584964
40.34285714285714,0.010249864664104224
40.457142857142856,0.010723476748366672
40.57142857142857,0.011287100108478517
40.68571428571428,0.011843662328511629
40.8,0.012290913948559086
40.91428571428571,0.012560508546295373
41.028571428571425,0.012638015931695187
41.14285714285714,0.012558121869423466
41.25714285714285,0.012382110197153285
41.371428571428574,0.01217105622756946
41.48571428571429,0.011966505954739904
41.6,0.0117838305981989
41.714285714285715,0.011616817113549009
41.82857142857143,0.011448797813375659
41.94285714285714,0.011265595614052753
42.05714285714286,0.011066305826796026
42.17142857142857,0.010868138060100244
42.285714285714285,0.01070241012385981
42.4,0.010601761441379299
42.51428571428571,0.01058304672716997
42.628571428571426,0.010633826055254777
42.74285714285714,0.010710540312455944
42.857142857142854,0.010752004493636844
42.97142857142857,0.010703652100796537
43.08571428571428,0.010540445746917185
43.199999999999996,0.010275632618910542
43.31428571428571,0.009950809004960934
43.42857142857143,0.00961482109829491
43.542857142857144,0.009305599321530238
43.65714285714286,0.009044836788727497
43.77142857142857,0.008844130330543286
43.885714285714286,0.008712471168152987
44.0,0.008656188008331985
44.114285714285714,0.008672079976637844
44.22857142857143,0.008743151127927238
44.34285714285714,0.008845312931666106
44.457142857142856,0.008962975811952786
44.57142857142857,0.009101130271227675
44.68571428571428,0.0092812618294434
44.8,0.009519452581339363
44.91428571428571,0.00979903235338717
45.028571428571425,0.010056771043817378
45.14285714285714,0.010195920462558983
45.25714285714285,0.01012422267156997
45.37142857142857,0.0097988134109951
45.48571428571429,0.009252970751808356
45.6,0.008587983672179247
45.714285714285715,0.00793343271857585
45.82857142857143,0.007397979873242828
45.94285714285714,0.007037125407004514
46.05714285714286,0.006851521279035858
46.17142857142857,0.006809316617709091
46.285714285714285,0.006873017623120489
46.4,0.00701319654674966
46.51428571428571,0.007204707878723076
46.628571428571426,0.0074153154572708475
46.74285714285714,0.007601761564225498
46.857142857142854,0.007721133427137212
46.97142857142857,0.007751620682477272
47.08571428571428,0.007707324353796863
47.199999999999996,0.007634623012519791
47.31428571428571,0.007590839723677279
47.42857142857143,0.007618881311501281
47.542857142857144,0.007733621250923381
47.65714285714286,0.007925783367465456
47.77142857142857,0.008175676620842037
47.885714285714286,0.00846323529225678
48.0,0.00876651826725231
48.114285714285714,0.009052698250631186
48.22857142857143,0.00927361161414962
48.34285714285714,0.00937547247640713
48.457142857142856,0.009321153051594833
48.57142857142857,0.009112411874350447
48.68571428571428,0.00879763906990844
48.8,0.008459748109469246
48.91428571428571,0.008191734463888893
49.028571428571425,0.008074456226975746
49.14285714285714,0.008167552127501192
49.25714285714285,0.008512826673758038
49.37142857142857,0.00913788968815161
49.48571428571429,0.010045390044348602
49.6,0.011184571076713608
49.714285714285715,0.012421863941750377
49.82857142857143,0.013540304888753928
49.94285714285714,0.0142882402661042
50.05714285714286,0.01446631471047435
50.17142857142857,0.014009613791844424
50.285714285714285,0.013016783008383624
50.4,0.011708272769364177
50.51428571428571,0.01033953048386434
50.628571428571426,0.00911806669138399
50.74285714285714,0.008161165639151527
50.857142857142854,0.0074992559170187455
50.97142857142857,0.00710561770262429
51.08571428571428,0.0069291208041179185
51.199999999999996,0.0069166113449850046
51.31428571428571,0.007022972695973213
51.42857142857142,0.007213277690766672
51.542857142857144,0.007462427077212305
51.65714285714286,0.007754705377905035
51.77142857142857,0.008081430950789358
51.885714285714286,0.008433574010022447
52.0,0.008790404414654139
52.114285714285714,0.009111682001765464
52.22857142857143,0.009342409011373051
52.34285714285714,0.009431917496237115
52.457142857142856,0.009357689011754494
52.57142857142857,0.009138560932860413
52.68571428571428,0.008827864754242782
52.8,0.008490682338601244
52.91428571428571,0.008179750045426731
53.028571428571425,0.007923170431396658
53.14285714285714,0.00772617310051024
53.25714285714285,0.007579336622585836
53.37142857142857,0.007465368135387909
53.48571428571429,0.007363702250753154
53.6,0.007257365966143344
53.714285714285715,0.007143642143974004
53.82857142857143,0.007042738205473184
53.94285714285714,0.006995841489432369
54.05714285714286,0.007049868577116258
54.17142857142857,0.0072361466119813785
54.285714285714285,0.00755544435365351
54.4,0.00797769254046022
54.51428571428571,0.008454731134308842
54.628571428571426,0.008936392266327904
54.74285714285714,0.009380108659625687
54.857142857142854,0.009751410746777382
54.97142857142857,0.010020609406128068
55.08571428571428,0.010162772945856652
