Frequency,PSD
6.057142857142857,0.1301469355817664
6.171428571428571,0.12911709872274524
6.285714285714286,0.12699131620811846
6.3999999999999995,0.1238329126174083
6.514285714285714,0.12001292214394449
6.628571428571428,0.11616217195471196
6.742857142857143,0.11290154740362293
6.857142857142857,0.1105678824067971
6.9714285714285715,0.109170556084957
7.085714285714285,0.1086231781117737
7.2,0.10905265273611355
7.314285714285714,0.11089173699705931
7.428571428571428,0.11460765739167629
7.542857142857143,0.1202197873782602
7.657142857142857,0.12697903718451914
7.771428571428571,0.13352048235189182
7.885714285714285,0.13848094065173133
8.0,0.14123704270863263
8.114285714285714,0.14232309619018485
8.228571428571428,0.14329305506647372
8.342857142857143,0.1461360871923783
8.457142857142857,0.15259773640377142
8.571428571428571,0.16374651620820735
8.685714285714285,0.1798915340062472
8.799999999999999,0.20068870172683206
8.914285714285715,0.225179235054833
9.028571428571428,0.25165483139661204
9.142857142857142,0.2775137836559367
9.257142857142856,0.2994338396853029
9.371428571428572,0.3140846280266888
9.485714285714286,0.3192713931092251
9.6,0.3150553683050616
9.714285714285714,0.30428105320570803
9.828571428571427,0.29216538728784913
9.942857142857143,0.28505454471099834
10.057142857142857,0.28885606973322575
10.17142857142857,0.3077423703659283
10.285714285714285,0.34343174719528885
10.4,0.39491654591776104
10.514285714285714,0.4583260301854998
10.628571428571428,0.5268993366804124
10.742857142857142,0.5915224919562208
10.857142857142858,0.6423400442229117
10.971428571428572,0.6712862329688687
11.085714285714285,0.6744826799833709
11.2,0.6532228821126389
11.314285714285713,0.6130571895958402
11.428571428571429,0.5616447954834491
11.542857142857143,0.506553154714755
11.657142857142857,0.45377375196138425
11.77142857142857,0.40701142855724987
11.885714285714286,0.36751358218418273
12.0,0.33437322667943337
12.114285714285714,0.3053640635243187
12.228571428571428,0.2781412181864524
12.342857142857142,0.25131399719212916
12.457142857142857,0.22488662233035778
12.571428571428571,0.1999375988736896
12.685714285714285,0.17784793646629302
12.799999999999999,0.15956448091169892
12.914285714285715,0.14524480525448036
13.028571428571428,0.1343455889714994
13.142857142857142,0.12598424681235093
13.257142857142856,0.11932819851698859
13.371428571428572,0.1138381057239039
13.485714285714286,0.10931892417627498
13.6,0.10582266143028496
13.714285714285714,0.10347936129350452
13.828571428571427,0.10233977967692462
13.942857142857143,0.10229982220064615
14.057142857142857,0.10312113186892766
14.17142857142857,0.10448940126284328
14.285714285714285,0.10603813653758508
14.4,0.10733626055891304
14.514285714285714,0.10791266123240224
14.628571428571428,0.10737227733455265
14.742857142857142,0.1055556723466442
14.857142857142856,0.10261973608240348
14.971428571428572,0.09896027445195896
15.085714285714285,0.09502237394752183
15.2,0.09112901555430812
15.314285714285713,0.08742452346987313
15.428571428571429,0.08392299306354234
15.542857142857143,0.08058359560294569
15.657142857142857,0.07735606429689978
15.77142857142857,0.07419985260064856
15.885714285714284,0.07110444749362119
16.0,0.06811598041917138
16.114285714285714,0.06535244049650415
16.228571428571428,0.06299497531271675
16.34285714285714,0.061258493538333264
16.457142857142856,0.06034792162667364
16.57142857142857,0.06040253942556138
16.685714285714287,0.06143644164768751
16.8,0.06329704830350291
16.914285714285715,0.06567050422704282
17.02857142857143,0.06815355989471678
17.142857142857142,0.07038643108655743
17.257142857142856,0.07220465475259134
17.37142857142857,0.07373426708456253
17.485714285714284,0.075352400700493
17.599999999999998,0.07748937500613749
17.714285714285715,0.08034744916132742
17.82857142857143,0.08369744786620627
17.942857142857143,0.08691160848121716
18.057142857142857,0.0892653863032086
18.17142857142857,0.0903517564844093
18.285714285714285,0.09033702093366722
18.4,0.08986264504070504
18.514285714285712,0.08963703617835936
18.628571428571426,0.08998868081179726
18.742857142857144,0.09068304379150238
18.857142857142858,0.0911118077492366
18.97142857142857,0.09069901610413977
19.085714285714285,0.0892366576396398
19.2,0.08694684916309689
19.314285714285713,0.08428283874457893
19.428571428571427,0.08165430401511103
19.54285714285714,0.07927446357973537
19.657142857142855,0.07719363801888394
19.771428571428572,0.07542887016928136
19.885714285714286,0.07404396211442027
20.0,0.0731066980773219
20.114285714285714,0.07257533052615937
20.228571428571428,0.07223623739780047
20.34285714285714,0.07177216065866703
20.457142857142856,0.07092269749385186
20.57142857142857,0.06960930847465986
20.685714285714287,0.0679210923490715
20.8,0.06598005797519696
20.914285714285715,0.06381388907028729
21.02857142857143,0.0613547674044066
21.142857142857142,0.058562748887337625
21.257142857142856,0.05555741625317062
21.37142857142857,0.05263800442536176
21.485714285714284,0.05017270404546317
21.599999999999998,0.04844117481794443
21.714285714285715,0.04753418108645817
21.82857142857143,0.04735459919805285
21.942857142857143,0.047692237604624155
22.057142857142857,0.048314405348496285
22.17142857142857,0.049026673852585224
22.285714285714285,0.04968797732342881
22.4,0.05019252397653429
22.514285714285712,0.05044915700473583
22.628571428571426,0.050385506956318424
22.742857142857144,0.04997514297995398
22.857142857142858,0.04925438786027088
22.97142857142857,0.04829975511244939
23.085714285714285,0.047181682655166944
23.2,0.04594658862862079
23.314285714285713,0.04465656329746422
23.428571428571427,0.04344895628912034
23.54285714285714,0.04253979584884499
23.657142857142855,0.0421351260811386
23.771428571428572,0.04229994607866107
23.885714285714286,0.0428830282080395
24.0,0.0435610783893831
24.114285714285714,0.0439800015425047
24.228571428571428,0.04390784827790088
24.34285714285714,0.043317424001439384
24.457142857142856,0.04237028703429718
24.57142857142857,0.04132956445358808
24.685714285714283,0.04045325458765295
24.8,0.03991210122463249
24.914285714285715,0.03975350882134569
25.02857142857143,0.03990994846490155
25.142857142857142,0.04023578635000962
25.257142857142856,0.04055526843929691
25.37142857142857,0.04071298477593929
25.485714285714284,0.040623800248341495
25.599999999999998,0.040311936746955754
25.71428571428571,0.0399148549900991
25.82857142857143,0.039627706437589005
25.942857142857143,0.0395946004167174
26.057142857142857,0.039801861847760356
26.17142857142857,0.04005292511796981
26.285714285714285,0.0400653784970527
26.4,0.039641692948529095
26.514285714285712,0.038797587986374366
26.628571428571426,0.0377521062831043
26.742857142857144,0.036783410178742135
26.857142857142858,0.0360542074556217
26.97142857142857,0.035530979476982305
27.085714285714285,0.03504921619234144
27.2,0.03447018797204716
27.314285714285713,0.0338114801850479
27.428571428571427,0.03325620381730804
27.54285714285714,0.03303493159808223
27.657142857142855,0.03326411235759001
27.771428571428572,0.03385122815715198
27.885714285714286,0.03452569040633464
28.0,0.03496826327141429
28.114285714285714,0.03495424144429703
28.228571428571428,0.03443150413990672
28.34285714285714,0.033508237945158524
28.457142857142856,0.03238088928619531
28.57142857142857,0.03125514957621353
28.685714285714283,0.030298158097285602
28.8,0.029628234626244178
28.914285714285715,0.029321630975310015
29.02857142857143,0.029409464706145465
29.142857142857142,0.02985686378095581
29.257142857142856,0.030546515618924415
29.37142857142857,0.03130006839581815
29.485714285714284,0.031943684531339694
29.599999999999998,0.03237824772171927
29.71428571428571,0.03259791506001895
29.82857142857143,0.03263840944457314
29.942857142857143,0.03249818731147865
30.057142857142857,0.032101418803110945
30.17142857142857,0.031334726240999526
30.285714285714285,0.030125785925710708
30.4,0.02850215573592254
30.514285714285712,0.0265952205146052
30.628571428571426,0.02460167466234902
30.74285714285714,0.022735291973303953
30.857142857142858,0.021186267234585977
30.97142857142857,0.02008551117777333
31.085714285714285,0.019473402416165117
31.2,0.019287631240788847
31.314285714285713,0.019386276863989124
31.428571428571427,0.019602565877317485
31.54285714285714,0.019805835601211307
31.657142857142855,0.019939061187886496
31.77142857142857,0.020017091813874233
31.885714285714286,0.020089060990957034
32.0,0.020185049827715316
32.114285714285714,0.02027775240946019
32.22857142857143,0.02028711650230804
32.34285714285714,0.020131897920333836
32.457142857142856,0.01979589809671597
32.57142857142857,0.019357672338578717
32.68571428571428,0.018954472154544235
32.8,0.018702221435865654
32.91428571428571,0.018629914596103605
33.028571428571425,0.018674950860573882
33.14285714285714,0.018736567077420455
33.25714285714285,0.018742860161513525
33.371428571428574,0.018686067161663544
33.48571428571429,0.01861217349120768
33.6,0.018581271792389956
33.714285714285715,0.01862439951774205
33.82857142857143,0.018716885680608336
33.94285714285714,0.018780169842977538
34.05714285714286,0.018714717896402625
34.17142857142857,0.01845182737525941
34.285714285714285,0.017997433734838645
34.4,0.01744068355714796
34.51428571428571,0.016919683009029785
34.628571428571426,0.01656364883739213
34.74285714285714,0.01644408781802775
34.857142857142854,0.016558589971313955
34.97142857142857,0.01684864316324486
35.08571428571428,0.017234153226669796
35.199999999999996,0.017641971870956022
35.31428571428572,0.018013704562325754
35.42857142857143,0.01829393281916496
35.542857142857144,0.018415144391381897
35.65714285714286,0.018299748514013035
35.77142857142857,0.017887252923694322
35.885714285714286,0.017173417888482707
36.0,0.0162347556768973
36.114285714285714,0.015217908882187919
36.22857142857143,0.014295268159386912
36.34285714285714,0.013609516693352898
36.457142857142856,0.013235539250683305
36.57142857142857,0.013175307522603503
36.68571428571428,0.013380151545475467
36.8,0.013780397631432658
36.91428571428571,0.014303552805155977
37.028571428571425,0.014875851839260382
37.14285714285714,0.015416696672353764
37.25714285714285,0.015840943851117215
37.371428571428574,0.01607722351961381
37.48571428571429,0.016096567708500674
37.6,0.015934120101294077
37.714285714285715,0.015686155893608025
37.82857142857143,0.015477017295276762
37.94285714285714,0.015408869953748992
38.05714285714286,0.015519195988838705
38.17142857142857,0.015767568672220875
38.285714285714285,0.01605602122878906
38.4,0.016268572039978973
38.51428571428571,0.01630881939637193
38.628571428571426,0.016122652910988657
38.74285714285714,0.015705788339496873
38.857142857142854,0.015101245637836911
38.97142857142857,0.014388714679043482
39.08571428571428,0.013664198349898814
39.199999999999996,0.013011383466398517
39.31428571428571,0.012474235051554365
39.42857142857143,0.012045327301645306
39.542857142857144,0.011679476963483058
39.65714285714286,0.01132779348090952
39.77142857142857,0.010972690538274245
39.885714285714286,0.010642215244705627
40.0,0.010396368125691363
40.114285714285714,0.010297908889993436
40.22857142857143,0.010387994375123017
40.34285714285714,0.010677031878593066
40.457142857142856,0.011145883508936454
40.57142857142857,0.011748466533151852
40.68571428571428,0.012415245971686157
40.8,0.013064171657864877
40.91428571428571,0.013620278167871492
41.028571428571425,0.014033336403264625
41.14285714285714,0.01428032924686426
41.25714285714285,0.014352377092396031
41.371428571428574,0.014242131136623499
41.48571428571429,0.013949506592868248
41.6,0.013506419758539908
41.714285714285715,0.012999962769401423
41.82857142857143,0.012568598716643562
41.94285714285714,0.012363364545612519
42.05714285714286,0.01249155629739435
42.17142857142857,0.01297343454685779
42.285714285714285,0.013734466084039386
42.4,0.014634618172427928
42.51428571428571,0.015517240558489416
42.628571428571426,0.016253353438831716
42.74285714285714,0.016764275947666267
42.857142857142854,0.017020791958916898
42.97142857142857,0.017030251400160762
43.08571428571428,0.016825144910544616
43.199999999999996,0.01645774776422411
43.31428571428571,0.01599533915138038
43.42857142857143,0.015509154391178568
43.542857142857144,0.015057314653622625
43.65714285714286,0.01466913595356699
43.77142857142857,0.014339363377611145
43.885714285714286,0.014036756189311703
44.0,0.01372519319606448
44.114285714285714,0.013388829494075142
44.22857142857143,0.013048374730948826
44.34285714285714,0.01275797850469094
44.457142857142856,0.012583113902122174
44.57142857142857,0.012572476601588724
44.68571428571428,0.012740329290034883
44.8,0.013066067159331842
44.91428571428571,0.013503796629548957
45.028571428571425,0.013990040096773957
45.14285714285714,0.014446673628281604
45.25714285714285,0.014788054097532161
45.37142857142857,0.014940707114620302
45.48571428571429,0.014869320871499513
45.6,0.014590523787831931
45.714285714285715,0.01416227730013838
45.82857142857143,0.013657115047261133
45.94285714285714,0.013140146593534015
46.05714285714286,0.01266419863592414
46.17142857142857,0.012275216851966845
46.285714285714285,0.012012374061419388
46.4,0.011896529472201156
46.51428571428571,0.011915305817115258
46.628571428571426,0.012017898995825508
46.74285714285714,0.012125821067293539
46.857142857142854,0.01215584412867986
46.97142857142857,0.01204585765729349
47.08571428571428,0.011774246954937577
47.199999999999996,0.011366843379442373
47.31428571428571,0.010890284004066931
47.42857142857143,0.010434281897965175
47.542857142857144,0.010086700682520638
47.65714285714286,0.009906390764551281
47.77142857142857,0.009901692715776487
47.885714285714286,0.01002507072150239
48.0,0.01019088472945602
48.114285714285714,0.010312209318781466
48.22857142857143,0.010340531441972587
48.34285714285714,0.010289041171318174
48.457142857142856,0.01023000253580824
48.57142857142857,0.010274094997945325
48.68571428571428,0.010555946890897715
48.8,0.01125956846025734
48.91428571428571,0.012714274029268764
49.028571428571425,0.015560894492245915
49.14285714285714,0.02090977515538657
49.25714285714285,0.030299466919220454
49.37142857142857,0.045214549295104337
49.48571428571429,0.06609054765437739
49.6,0.09117564102170404
49.714285714285715,0.11607015886290104
49.82857142857143,0.13470935460860625
49.94285714285714,0.14172049086165467
50.05714285714286,0.1349551116811559
50.17142857142857,0.11658716369524876
50.285714285714285,0.09202539652104974
50.4,0.06738262814063561
50.51428571428571,0.04710595666547472
50.628571428571426,0.03296831241244451
50.74285714285714,0.0245000190348768
50.857142857142854,0.020111821743176328
50.97142857142857,0.01810454876881476
51.08571428571428,0.017198701501398798
51.199999999999996,0.016639453625959286
51.31428571428571,0.01608959687757777
51.42857142857142,0.015475974250126846
51.542857142857144,0.01485933044124762
51.65714285714286,0.014340234741981072
51.77142857142857,0.013998459605568584
51.885714285714286,0.013863370412222605
52.0,0.013911264225319776
52.114285714285714,0.014081147595967711
52.22857142857143,0.014298118940659722
52.34285714285714,0.014495087793870327
52.457142857142856,0.014626918084828924
52.57142857142857,0.014674246756299868
52.68571428571428,0.014637276573789515
52.8,0.014523448997867646
52.91428571428571,0.014336437687395417
53.028571428571425,0.014074858001054931
53.14285714285714,0.01374435649014898
53.25714285714285,0.013376224463412035
53.37142857142857,0.013035789628986253
53.48571428571429,0.012805098251206149
53.6,0.012741404516670447
53.714285714285715,0.012835676468985304
53.82857142857143,0.013003676836310086
53.94285714285714,0.013124083160902234
54.05714285714286,0.013104019389195028
54.17142857142857,0.012929627523899596
54.285714285714285,0.012668438384334083
54.4,0.012425033055666425
54.51428571428571,0.012283112615438987
54.628571428571426,0.012270626630158012
54.74285714285714,0.012361343244829022
54.857142857142854,0.012499859674822904
54.97142857142857,0.012628526922584846
55.08571428571428,0.012704063243108204
