Frequency,PSD
6.057142857142857,0.3766064965284215
6.171428571428571,0.37553535581449576
6.285714285714286,0.37481513329160143
6.3999999999999995,0.3768766666538654
6.514285714285714,0.38446174642420916
6.628571428571428,0.39984977707133657
6.742857142857143,0.4242251426651463
6.857142857142857,0.4573423483315769
6.9714285714285715,0.49754862082562695
7.085714285714285,0.5421213338230996
7.2,0.5877988898953679
7.314285714285714,0.6313491142255124
7.428571428571428,0.6700379074573503
7.542857142857143,0.701923719791643
7.657142857142857,0.7259804168592179
7.771428571428571,0.7421030541240804
7.885714285714285,0.7510528498515083
8.0,0.7543572457729109
8.114285714285714,0.7541363241322724
8.228571428571428,0.7528194575953785
8.342857142857143,0.7527599168891607
8.457142857142857,0.7558252811577235
8.571428571428571,0.763090566303668
8.685714285714285,0.7747511361056518
8.799999999999999,0.7902992797215457
8.914285714285715,0.8089026291008774
9.028571428571428,0.829832621158971
9.142857142857142,0.8527590979433848
9.257142857142856,0.8777712763702815
9.371428571428572,0.90509305682538
9.485714285714286,0.9345911942444775
9.6,0.9652730921673318
9.714285714285714,0.99499109004117
9.828571428571427,1.0205001801813163
9.942857142857143,1.0378874810231864
10.057142857142857,1.0432630049020675
10.17142857142857,1.0335244502890752
10.285714285714285,1.0070025646744538
10.4,0.9638414976302083
10.514285714285714,0.9060398558021544
10.628571428571428,0.8371509993203137
10.742857142857142,0.7617080561714418
10.857142857142858,0.684496268735644
10.971428571428572,0.6098310569349915
11.085714285714285,0.540997951463085
11.2,0.47996288192123016
11.314285714285713,0.4273812626784956
11.428571428571429,0.3828519233301044
11.542857142857143,0.34530770184855597
11.657142857142857,0.3134230816206267
11.77142857142857,0.28594469161032965
11.885714285714286,0.2618944251186446
12.0,0.24063881537414636
12.114285714285714,0.22185081486646438
12.228571428571428,0.20540736216042954
12.342857142857142,0.19126856268045622
12.457142857142857,0.17937491914496864
12.571428571428571,0.16958300375461033
12.685714285714285,0.16164375050708404
12.799999999999999,0.15521634315063346
12.914285714285715,0.14990594373699972
13.028571428571428,0.14531316456735846
13.142857142857142,0.14108426303732496
13.257142857142856,0.13695223633007367
13.371428571428572,0.1327609390558935
13.485714285714286,0.12846793014531513
13.6,0.12412666428679459
13.714285714285714,0.11985347087035579
13.828571428571427,0.11578808172650558
13.942857142857143,0.11205750474055229
14.057142857142857,0.10875154362152722
14.17142857142857,0.10591431703722551
14.285714285714285,0.1035505085977853
14.4,0.10163968592441261
14.514285714285714,0.10014942353058581
14.628571428571428,0.09903985150237661
14.742857142857142,0.09825800624013703
14.857142857142856,0.09772697625768906
14.971428571428572,0.09733858267448117
15.085714285714285,0.09695704933211528
15.2,0.09643558840810695
15.314285714285713,0.0956413210973802
15.428571428571429,0.09448020305032445
15.542857142857143,0.09291454443770583
15.657142857142857,0.09097027224993906
15.77142857142857,0.08873603681531596
15.885714285714284,0.08635829539078338
16.0,0.08403439057523984
16.114285714285714,0.08200112176942782
16.228571428571428,0.08051308652913028
16.34285714285714,0.07980646723246819
16.457142857142856,0.08005055380953008
16.57142857142857,0.08129813268073284
16.685714285714287,0.08345175622137249
16.8,0.08626154803092723
16.914285714285715,0.08936105257140797
17.02857142857143,0.09233449819982431
17.142857142857142,0.09479764743633887
17.257142857142856,0.09646981353091727
17.37142857142857,0.09721779916028317
17.485714285714284,0.09706141342202783
17.599999999999998,0.09614144273551675
17.714285714285715,0.0946613254314192
17.82857142857143,0.09282079421721502
17.942857142857143,0.0907614438065884
18.057142857142857,0.08853962371069224
18.17142857142857,0.0861323583911959
18.285714285714285,0.08347061192348822
18.4,0.08048561153200533
18.514285714285712,0.07715128117031006
18.628571428571426,0.07350937038879898
18.742857142857144,0.06967126930824022
18.857142857142858,0.06579858098351087
18.97142857142857,0.06207078088256922
19.085714285714285,0.058651371522665724
19.2,0.05566328110017897
19.314285714285713,0.05317996673606623
19.428571428571427,0.0512319461015737
19.54285714285714,0.04982181417975878
19.657142857142855,0.048937341021608356
19.771428571428572,0.048554084239124974
19.885714285714286,0.04862560142479328
20.0,0.04906756033595785
20.114285714285714,0.049747330013878606
20.228571428571428,0.050489751839769594
20.34285714285714,0.05110273457260209
20.457142857142856,0.051416568347477376
20.57142857142857,0.05132352536334918
20.685714285714287,0.05080322789446516
20.8,0.049924732207208736
20.914285714285715,0.04882511992442368
21.02857142857143,0.04767212623323361
21.142857142857142,0.046621951318403666
21.257142857142856,0.04578272397062849
21.37142857142857,0.04519102800110159
21.485714285714284,0.04480552071853026
21.599999999999998,0.04451872930793906
21.714285714285715,0.04418512774373437
21.82857142857143,0.0436600467632394
21.942857142857143,0.04284037661308062
22.057142857142857,0.041695997637949636
22.17142857142857,0.0402820845978143
22.285714285714285,0.03872734827671895
22.4,0.03720063072198137
22.514285714285712,0.03586551231471829
22.628571428571426,0.034836989984861955
22.742857142857144,0.034154014809463305
22.857142857142858,0.03377649417919804
22.97142857142857,0.03360683877224858
23.085714285714285,0.03352732798734385
23.2,0.033439039367813284
23.314285714285713,0.033288341016203524
23.428571428571427,0.03307297106262464
23.54285714285714,0.03282866368596582
23.657142857142855,0.03260476705176394
23.771428571428572,0.03243993480350329
23.885714285714286,0.032346301026024225
24.0,0.03230510084219684
24.114285714285714,0.03227202536311331
24.228571428571428,0.03218877287129701
24.34285714285714,0.03199777211181406
24.457142857142856,0.031657857810235335
24.57142857142857,0.031158287503092654
24.685714285714283,0.030527295963059843
24.8,0.029831146387825073
24.914285714285715,0.029161745419238883
25.02857142857143,0.028614980532003433
25.142857142857142,0.02826598158363213
25.257142857142856,0.02814918300106503
25.37142857142857,0.02824932902294354
25.485714285714284,0.02850531330796113
25.599999999999998,0.028824186806972865
25.71428571428571,0.029099959536182156
25.82857142857143,0.029231846767544225
25.942857142857143,0.02913865746861468
26.057142857142857,0.028768468513840725
26.17142857142857,0.02810417001255581
26.285714285714285,0.02716551150348651
26.4,0.026007521706981614
26.514285714285712,0.024714568204985393
26.628571428571426,0.023389516588235043
26.742857142857144,0.022138528381854136
26.857142857142858,0.021053639430668583
26.97142857142857,0.020196765362917195
27.085714285714285,0.019589457048859515
27.2,0.019211942608503705
27.314285714285713,0.019012565591938556
27.428571428571427,0.018925262118107612
27.54285714285714,0.01888954309401701
27.657142857142855,0.018866076637419366
27.771428571428572,0.01884232180290593
27.885714285714286,0.018826506001242915
28.0,0.01883311656491451
28.114285714285714,0.018866861593571194
28.228571428571428,0.018912856492959075
28.34285714285714,0.018937942667002546
28.457142857142856,0.01890266016337578
28.57142857142857,0.018778062394092656
28.685714285714283,0.018559076283655485
28.8,0.018267881471805712
28.914285714285715,0.01794588521875535
29.02857142857143,0.017638505626721642
29.142857142857142,0.01738010983994315
29.257142857142856,0.017185599209082154
29.37142857142857,0.017051120705896993
29.485714285714284,0.01696168825514568
29.599999999999998,0.016900666012344297
29.71428571428571,0.01685629239490918
29.82857142857143,0.01682308500580425
29.942857142857143,0.016799228799710034
30.057142857142857,0.01678304021083916
30.17142857142857,0.01677141698740958
30.285714285714285,0.016761243393662573
30.4,0.016752365604672453
30.514285714285712,0.016749427090030515
30.628571428571426,0.01676032072988037
30.74285714285714,0.016790995081813552
30.857142857142858,0.01683872898519803
30.97142857142857,0.016887418377149275
31.085714285714285,0.01690803993384108
31.2,0.016865346281915817
31.314285714285713,0.016729006456277954
31.428571428571427,0.01648523843043524
31.54285714285714,0.01614453783558706
31.657142857142855,0.015742516828714644
31.77142857142857,0.015333337963679866
31.885714285714286,0.014977611783302043
32.0,0.014728109093702127
32.114285714285714,0.014617035739061004
32.22857142857143,0.014648143106019676
32.34285714285714,0.01479580760546935
32.457142857142856,0.015011492787370868
32.57142857142857,0.015235931419951144
32.68571428571428,0.015413536192899466
32.8,0.015504780387434986
32.91428571428571,0.01549306425424582
33.028571428571425,0.015384616672880007
33.14285714285714,0.01520234683269022
33.25714285714285,0.014976277605698928
33.371428571428574,0.014733791475529652
33.48571428571429,0.014492523836603306
33.6,0.014257708298901876
33.714285714285715,0.014024374443872816
33.82857142857143,0.013783207209011883
33.94285714285714,0.013527485433697979
34.05714285714286,0.013257980417696115
34.17142857142857,0.012983551295130178
34.285714285714285,0.012717280066580242
34.4,0.012470353172868886
34.51428571428571,0.012247182477507147
34.628571428571426,0.012044646707737772
34.74285714285714,0.01185608719795902
34.857142857142854,0.011678016180928768
34.97142857142857,0.01151583782822206
35.08571428571428,0.011385140725654797
35.199999999999996,0.011307211193671576
35.31428571428572,0.011300332130101454
35.42857142857143,0.011370713628124224
35.542857142857144,0.011507336930449827
35.65714285714286,0.011683264170646404
35.77142857142857,0.01186291102684921
35.885714285714286,0.012012020124902713
36.0,0.012106108742088261
36.114285714285714,0.012134445826843313
36.22857142857143,0.012099239489462893
36.34285714285714,0.012012019927351649
36.457142857142856,0.011889858140628864
36.57142857142857,0.011752937707917549
36.68571428571428,0.011623162393165794
36.8,0.01152237131768782
36.91428571428571,0.011469111002875024
37.028571428571425,0.011474375874027935
37.14285714285714,0.011538069508362843
37.25714285714285,0.01164807807080892
37.371428571428574,0.011782630987414326
37.48571428571429,0.011914917614001855
37.6,0.012017951070065912
37.714285714285715,0.01206806940713826
37.82857142857143,0.01204683393566929
37.94285714285714,0.011942294253822452
38.05714285714286,0.01175067633432462
38.17142857142857,0.011478479905469347
38.285714285714285,0.011143668322557037
38.4,0.010774250432801925
38.51428571428571,0.010403557417964593
38.628571428571426,0.010063314768332004
38.74285714285714,0.009776990327550656
38.857142857142854,0.009555935798534334
38.97142857142857,0.009399529490726956
39.08571428571428,0.009298718241635964
39.199999999999996,0.009241072088184196
39.31428571428571,0.009215233548100622
39.42857142857143,0.009213305167884373
39.542857142857144,0.009230751311985166
39.65714285714286,0.009264341619034161
39.77142857142857,0.0093093210448846
39.885714285714286,0.009357258908586859
40.0,0.009395797072919352
40.114285714285714,0.009410739172652867
40.22857142857143,0.00938981400464598
40.34285714285714,0.00932652423280067
40.457142857142856,0.009222313348965675
40.57142857142857,0.009086043948135974
40.68571428571428,0.008931104581330609
40.8,0.008771598440057822
40.91428571428571,0.008619361372500767
41.028571428571425,0.008482880235166477
41.14285714285714,0.008368003364724264
41.25714285714285,0.008279391363600536
41.371428571428574,0.008221467574159126
41.48571428571429,0.008198184823865732
41.6,0.008211766685629139
41.714285714285715,0.008261167553675805
41.82857142857143,0.008341077443760295
41.94285714285714,0.008442002886617849
42.05714285714286,0.008551568835191672
42.17142857142857,0.008656864615108745
42.285714285714285,0.008747359442161352
42.4,0.008817588217743573
42.51428571428571,0.008868596269887811
42.628571428571426,0.008907322255518088
42.74285714285714,0.00894383861731132
42.857142857142854,0.00898740009576681
42.97142857142857,0.009042971638360707
43.08571428571428,0.009109777380088318
43.199999999999996,0.009182391205397869
43.31428571428571,0.009253541208791773
43.42857142857143,0.00931695299462193
43.542857142857144,0.009368743596405096
43.65714285714286,0.009406964007591294
43.77142857142857,0.00943014919616108
43.885714285714286,0.009436335549730012
44.0,0.009423559620287238
44.114285714285714,0.009391677944684962
44.22857142857143,0.0093442571945325
44.34285714285714,0.009289032779604207
44.457142857142856,0.009236208740448127
44.57142857142857,0.009195166177154483
44.68571428571428,0.009171120587285315
44.8,0.00916332736337772
44.91428571428571,0.009165616841335197
45.028571428571425,0.009168924879338604
45.14285714285714,0.009164731074902557
45.25714285714285,0.009148209808612473
45.37142857142857,0.009120248725452891
45.48571428571429,0.009087905723623089
45.6,0.009063145138268773
45.714285714285715,0.009059917425171385
45.82857142857143,0.009090045919426408
45.94285714285714,0.009158977127956349
46.05714285714286,0.009262914393732915
46.17142857142857,0.009388729855383292
46.285714285714285,0.009517141537393426
46.4,0.009628274169470164
46.51428571428571,0.009707599198152847
46.628571428571426,0.00975000702366167
46.74285714285714,0.009760544311154761
46.857142857142854,0.009751725115272575
46.97142857142857,0.009738609102320637
47.08571428571428,0.009733503909612513
47.199999999999996,0.009742047161039545
47.31428571428571,0.009761745412023133
47.42857142857143,0.009783126756174959
47.542857142857144,0.00979283358642914
47.65714285714286,0.00977750359302314
47.77142857142857,0.009727296153100886
47.885714285714286,0.00963836546122106
48.0,0.009514224292294749
48.114285714285714,0.009366493367962428
48.22857142857143,0.009215836452303644
48.34285714285714,0.009093990426695972
48.457142857142856,0.0090478032520044
48.57142857142857,0.009145924863565724
48.68571428571428,0.009487701638981095
48.8,0.010211298871885316
48.91428571428571,0.01149430009466328
49.028571428571425,0.013536836885998172
49.14285714285714,0.01651812471112765
49.25714285714285,0.02052542508099625
49.37142857142857,0.025469948516381388
49.48571428571429,0.0310212295800902
49.6,0.036599257359263206
49.714285714285715,0.041452147977977034
49.82857142857143,0.04481536203871267
49.94285714285714,0.046108797574867924
50.05714285714286,0.045101879548811376
50.17142857142857,0.04198165686413308
50.285714285714285,0.03729611878707905
50.4,0.03179644258781407
50.51428571428571,0.026240870640100465
50.628571428571426,0.021230461257325473
50.74285714285714,0.017122977070480102
50.857142857142854,0.014032347841140269
50.97142857142857,0.011888672104846544
51.08571428571428,0.010520608056315205
51.199999999999996,0.00972810776245232
51.31428571428571,0.009329449750760208
51.42857142857142,0.009181816215154397
51.542857142857144,0.009183211337059417
51.65714285714286,0.009265028283666633
51.77142857142857,0.009382093388744746
51.885714285714286,0.009503822631393363
52.0,0.009607935370834954
52.114285714285714,0.00967709253072311
52.22857142857143,0.009698256348172802
52.34285714285714,0.009664037954604384
52.457142857142856,0.00957477856125131
52.57142857142857,0.009439846528906061
52.68571428571428,0.009276857958077277
52.8,0.009108284807433939
52.91428571428571,0.008956016644722174
53.028571428571425,0.008835505886343084
53.14285714285714,0.008751659375639384
53.25714285714285,0.008698245229227833
53.37142857142857,0.008661245647071322
53.48571428571429,0.008624828977202553
53.6,0.008577334334351011
53.714285714285715,0.008514626736586805
53.82857142857143,0.00843950465189206
53.94285714285714,0.008357841913273422
54.05714285714286,0.008273730091014675
54.17142857142857,0.008186227708314103
54.285714285714285,0.008089338779122905
54.4,0.007975172918954644
54.51428571428571,0.007838771907141747
54.628571428571426,0.007682439341201069
54.74285714285714,0.007517694348845612
54.857142857142854,0.0073639163318665705
54.97142857142857,0.007243951813903087
55.08571428571428,0.007178037868690091
