Frequency,PSD
6.057142857142857,0.10938775115408332
6.171428571428571,0.11025959927569835
6.285714285714286,0.11200884208722311
6.3999999999999995,0.11464196933067047
6.514285714285714,0.11815828196807568
6.628571428571428,0.12254017335340939
6.742857142857143,0.12774426154770763
6.857142857142857,0.13369585113624102
6.9714285714285715,0.14028878833601444
7.085714285714285,0.14739197934199558
7.2,0.15486279421584878
7.314285714285714,0.1625664272233358
7.428571428571428,0.17039918739997817
7.542857142857143,0.1783128089462385
7.657142857142857,0.18633635273360888
7.771428571428571,0.19459224729635097
7.885714285714285,0.2033035612832031
8.0,0.21279067702452134
8.114285714285714,0.22345697820823646
8.228571428571428,0.235764677571432
8.342857142857143,0.2502031356542721
8.457142857142857,0.26725265532649656
8.571428571428571,0.2873466520594809
8.685714285714285,0.31083442063108085
8.799999999999999,0.33794579805100955
8.914285714285715,0.3687583171093308
9.028571428571428,0.4031673314272844
9.142857142857142,0.4408602002793604
9.257142857142856,0.48129676037715
9.371428571428572,0.5236995341418975
9.485714285714286,0.5670578876715681
9.6,0.610150216447477
9.714285714285714,0.6515870082091552
9.828571428571427,0.6898754030635832
9.942857142857143,0.7235029659601657
10.057142857142857,0.7510352614358626
10.17142857142857,0.7712189681355144
10.285714285714285,0.7830801694768051
10.4,0.786006545024432
10.514285714285714,0.7798028236667272
10.628571428571428,0.7647112411141034
10.742857142857142,0.7413927847229451
10.857142857142858,0.710870237980003
10.971428571428572,0.6744395927336917
11.085714285714285,0.6335611641944778
11.2,0.5897446312760539
11.314285714285713,0.5444425009648135
11.428571428571429,0.4989640509488011
11.542857142857143,0.4544172336783491
11.657142857142857,0.41168047210859754
11.77142857142857,0.3714010978508867
11.885714285714286,0.33401353524578264
12.0,0.2997688554553098
12.114285714285714,0.2687679881248343
12.228571428571428,0.2409930841859065
12.342857142857142,0.21633435167922488
12.457142857142857,0.19461221665670053
12.571428571428571,0.17559624390793266
12.685714285714285,0.1590226531245355
12.799999999999999,0.14461165965370226
12.914285714285715,0.13208471104008038
13.028571428571428,0.12118053005778337
13.142857142857142,0.11166817112782522
13.257142857142856,0.10335529333496395
13.371428571428572,0.09609053355907357
13.485714285714286,0.08975998922767145
13.6,0.08427902800909993
13.714285714285714,0.07958156368334562
13.828571428571427,0.07560931252465798
13.942857142857143,0.07230328844400902
14.057142857142857,0.06959901237441009
14.17142857142857,0.06742585042542955
14.285714285714285,0.06570986338044095
14.4,0.06437881586954641
14.514285714285714,0.06336770960722601
14.628571428571428,0.06262337408495276
14.742857142857142,0.062107141415468387
14.857142857142856,0.061795250560338924
14.971428571428572,0.06167717803133356
15.085714285714285,0.06175245617830668
15.2,0.06202669174729364
15.314285714285713,0.06250748973949852
15.428571428571429,0.06320090176933513
15.542857142857143,0.06410890888100848
15.657142857142857,0.06522831516448711
15.77142857142857,0.06655122498647108
15.885714285714284,0.06806695959975294
16.0,0.06976485265308677
16.114285714285714,0.0716369524094595
16.228571428571428,0.07367942590645801
16.34285714285714,0.07589158267880447
16.457142857142856,0.0782719961579484
16.57142857142857,0.0808121171987483
16.685714285714287,0.08348878963875984
16.8,0.08625783316888797
16.914285714285715,0.08905102504264348
17.02857142857143,0.09177823114546663
17.142857142857142,0.09433520772436882
17.257142857142856,0.09661606208054171
17.37142857142857,0.0985280012438225
17.485714285714284,0.1000052514894912
17.599999999999998,0.10101913869481777
17.714285714285715,0.10158223521558007
17.82857142857143,0.10174589694446251
17.942857142857143,0.1015919870743277
18.057142857142857,0.10122068811147654
18.17142857142857,0.10073678702180233
18.285714285714285,0.1002366631324448
18.4,0.0997976065026743
18.514285714285712,0.09947034275848511
18.628571428571426,0.09927500997631976
18.742857142857144,0.09920046815128838
18.857142857142858,0.0992067056908674
18.97142857142857,0.09923010439875737
19.085714285714285,0.0991912683815366
19.2,0.09900490874541512
19.314285714285713,0.09859091467874456
19.428571428571427,0.09788534941592085
19.54285714285714,0.09684985264000862
19.657142857142855,0.09547794737368374
19.771428571428572,0.09379709111071782
19.885714285714286,0.09186592620010649
20.0,0.08976694391416822
20.114285714285714,0.08759552240393559
20.228571428571428,0.08544689180668259
20.34285714285714,0.08340292656569037
20.457142857142856,0.08152072110228978
20.57142857142857,0.07982466579881532
20.685714285714287,0.07830323312933038
20.8,0.07691096852248683
20.914285714285715,0.0755753552392113
21.02857142857143,0.07420742319954848
21.142857142857142,0.0727143549446704
21.257142857142856,0.07101204876088746
21.37142857142857,0.06903570934790525
21.485714285714284,0.06674703316279942
21.599999999999998,0.06413731657528776
21.714285714285715,0.06122664218443195
21.82857142857143,0.058059977966034945
21.942857142857143,0.054701394922777855
22.057142857142857,0.051227617237195704
22.17142857142857,0.04772182951382059
22.285714285714285,0.044268230925837225
22.4,0.04094742234250764
22.514285714285712,0.03783247235188736
22.628571428571426,0.034985476415534095
22.742857142857144,0.032454554149385195
22.857142857142858,0.030271420221700925
22.97142857142857,0.02844980756126946
23.085714285714285,0.02698505078657587
23.2,0.02585504509597595
23.314285714285713,0.02502262110597371
23.428571428571427,0.024439177783205
23.54285714285714,0.024049242175367275
23.657142857142855,0.02379550055418086
23.771428571428572,0.023623775198691306
23.885714285714286,0.023487402951321894
24.0,0.023350510879193
24.114285714285714,0.02318979318931873
24.228571428571428,0.022994580453940948
24.34285714285714,0.022765246165931726
24.457142857142856,0.022510276801029516
24.57142857142857,0.022242575980997627
24.685714285714283,0.02197571205207598
24.8,0.021720803280752855
24.914285714285715,0.021484559807214903
25.02857142857143,0.02126870904252854
25.142857142857142,0.02107070094379542
25.257142857142856,0.02088531229676207
25.37142857142857,0.02070661650595246
25.485714285714284,0.020529787307765297
25.599999999999998,0.02035234215552675
25.71428571428571,0.020174646087225204
25.82857142857143,0.01999971633352348
25.942857142857143,0.019832528587676135
26.057142857142857,0.019679093682273434
26.17142857142857,0.019545549457285028
26.285714285714285,0.019437425909852448
26.4,0.019359134056994045
26.514285714285712,0.019313638657008015
26.628571428571426,0.019302226009759515
26.742857142857144,0.019324276934759917
26.857142857142858,0.01937699380155949
26.97142857142857,0.019455092876769334
27.085714285714285,0.019550539956097474
27.2,0.01965245923590027
27.314285714285713,0.01974736582639662
27.428571428571427,0.019819848921509724
27.54285714285714,0.01985376127700235
27.657142857142855,0.01983385936486799
27.771428571428572,0.019747709569389607
27.885714285714286,0.019587562667048496
28.0,0.01935183827635453
28.114285714285714,0.019045880835331874
28.228571428571428,0.018681756780390583
28.34285714285714,0.01827704104648216
28.457142857142856,0.017852749018068815
28.57142857142857,0.01743075511892218
28.685714285714283,0.017031152696358864
28.8,0.016670021602432274
28.914285714285715,0.016357976947035235
29.02857142857143,0.01609969927630695
29.142857142857142,0.01589443687073057
29.257142857142856,0.015737275878604264
29.37142857142857,0.015620838078792026
29.485714285714284,0.015537016663164994
29.599999999999998,0.015478402512798842
29.71428571428571,0.015439169821635358
29.82857142857143,0.015415346779167094
29.942857142857143,0.015404553075478934
30.057142857142857,0.015405403053097674
30.17142857142857,0.015416825755568873
30.285714285714285,0.015437533741715703
30.4,0.015465793474475945
30.514285714285712,0.015499538250343711
30.628571428571426,0.015536753179937789
30.74285714285714,0.015575980354714863
30.857142857142858,0.015616759387682762
30.97142857142857,0.015659837415676697
31.085714285714285,0.015707043284692506
31.2,0.015760804517065203
31.314285714285713,0.01582337229909831
31.428571428571427,0.015895891720440126
31.54285714285714,0.015977499840634592
31.657142857142855,0.016064646162207766
31.77142857142857,0.01615080635836224
31.885714285714286,0.016226702218446045
32.0,0.016281055230208043
32.114285714285714,0.016301800717708523
32.22857142857143,0.01627759278987243
32.34285714285714,0.016199359447604634
32.457142857142856,0.016061641355307296
32.57142857142857,0.015863477040372727
32.68571428571428,0.015608677727979272
32.8,0.01530544858454944
32.91428571428571,0.014965432578549372
33.028571428571425,0.014602350502333227
33.14285714285714,0.014230465894090138
33.25714285714285,0.013863109886796171
33.371428571428574,0.013511464978051106
33.48571428571429,0.01318374362201025
33.6,0.012884824508098369
33.714285714285715,0.01261633976238936
33.82857142857143,0.012377147567563213
33.94285714285714,0.012164080007493007
34.05714285714286,0.011972827423280808
34.17142857142857,0.011798811567541704
34.285714285714285,0.011637914343877485
34.4,0.011486968248465936
34.51428571428571,0.011343973635268498
34.628571428571426,0.011208073433750668
34.74285714285714,0.011079369391002623
34.857142857142854,0.010958687737148342
34.97142857142857,0.010847387445287635
35.08571428571428,0.010747255782505084
35.199999999999996,0.010660471963408103
35.31428571428572,0.010589566116559212
35.42857142857143,0.010537280534290528
35.542857142857144,0.010506264061950363
35.65714285714286,0.010498591773640892
35.77142857142857,0.010515178417785032
35.885714285714286,0.010555215894694716
36.0,0.010615787041866017
36.114285714285714,0.010691779534470994
36.22857142857143,0.010776152907634588
36.34285714285714,0.010860522466045536
36.457142857142856,0.010935946540707786
36.57142857142857,0.010993763478060895
36.68571428571428,0.01102633287897625
36.8,0.011027585171977538
36.91428571428571,0.010993353507984291
37.028571428571425,0.01092152539385952
37.14285714285714,0.010812086201876112
37.25714285714285,0.010667123040998278
37.371428571428574,0.010490821223454651
37.48571428571429,0.010289434815174848
37.6,0.01007117040602779
37.714285714285715,0.00984590799749024
37.82857142857143,0.009624702490563635
37.94285714285714,0.009419058065096747
38.05714285714286,0.009240029658453754
38.17142857142857,0.009097260552165773
38.285714285714285,0.008998095699369772
38.4,0.008946908355534387
38.51428571428571,0.008944744634607147
38.628571428571426,0.008989337083108898
38.74285714285714,0.009075478643445052
38.857142857142854,0.009195696045200822
38.97142857142857,0.009341125675262504
39.08571428571428,0.00950247805722311
39.199999999999996,0.00967097653323568
39.31428571428571,0.00983916618394112
39.42857142857143,0.010001505666059141
39.542857142857144,0.010154675822833022
39.65714285714286,0.010297566407694927
39.77142857142857,0.010430939079400067
39.885714285714286,0.010556811423419434
40.0,0.010677657629630364
40.114285714285714,0.01079556454998522
40.22857142857143,0.010911501901898019
40.34285714285714,0.011024850345224364
40.457142857142856,0.011133278939403822
40.57142857142857,0.01123298523760306
40.68571428571428,0.011319229033558524
40.8,0.011387029730032371
40.91428571428571,0.011431875871596043
41.028571428571425,0.011450317710990287
41.14285714285714,0.011440368042561712
41.25714285714285,0.011401700580982731
41.371428571428574,0.011335685384353127
41.48571428571429,0.011245321931519076
41.6,0.01113512051861927
41.714285714285715,0.011010952090363001
41.82857142857143,0.010879852429571289
41.94285714285714,0.010749744641811556
42.05714285714286,0.010629042935161651
42.17142857142857,0.010526120591974653
42.285714285714285,0.010448658270858573
42.4,0.010402924613206615
42.51428571428571,0.010393069652859774
42.628571428571426,0.010420526306213668
42.74285714285714,0.01048361396495782
42.857142857142854,0.010577421954299528
42.97142857142857,0.010694022263391613
43.08571428571428,0.010823024040968559
43.199999999999996,0.010952440446318082
43.31428571428571,0.011069795247675724
43.42857142857143,0.011163356427491049
43.542857142857144,0.011223352544309246
43.65714285714286,0.011243011450483568
43.77142857142857,0.011219267081625017
43.885714285714286,0.011153013401466325
44.0,0.01104884553479291
44.114285714285714,0.010914309996160328
44.22857142857143,0.010758774463938579
44.34285714285714,0.010592103003767459
44.457142857142856,0.01042336468291124
44.57142857142857,0.010259797751569641
44.68571428571428,0.010106195398068866
44.8,0.009964784325919719
44.91428571428571,0.009835558058778102
45.028571428571425,0.009716932258888126
45.14285714285714,0.009606534678789148
45.25714285714285,0.009501940444705082
45.37142857142857,0.009401210462007255
45.48571428571429,0.00930316843976577
45.6,0.009207434262624156
45.714285714285715,0.009114293611750155
45.82857142857143,0.009024510550178241
45.94285714285714,0.008939178819750322
46.05714285714286,0.008859668017769416
46.17142857142857,0.008787668579233876
46.285714285714285,0.00872529145402178
46.4,0.008675147695433007
46.51428571428571,0.008640326981918325
46.628571428571426,0.008624213179682438
46.74285714285714,0.008630114769065559
46.857142857142854,0.008660739397674679
46.97142857142857,0.008717593199498098
47.08571428571428,0.008800424011185526
47.199999999999996,0.00890684196220241
47.31428571428571,0.009032234443725817
47.42857142857143,0.009170045653928798
47.542857142857144,0.009312422367772969
47.65714285714286,0.009451152590560027
47.77142857142857,0.00957876063103112
47.885714285714286,0.009689587080391384
48.0,0.00978068432812245
48.114285714285714,0.009852396344923959
48.22857142857143,0.0099085536484415
48.34285714285714,0.009956281394512864
48.457142857142856,0.010005470034241376
48.57142857142857,0.010067979968682507
48.68571428571428,0.010156642686488629
48.8,0.010284094075234805
48.91428571428571,0.010461454586274576
49.028571428571425,0.010696880319233056
49.14285714285714,0.010994062331841435
49.25714285714285,0.01135084110746752
49.37142857142857,0.011758198409366098
49.48571428571429,0.012199943669989805
49.6,0.012653382116895814
49.714285714285715,0.01309111429323233
49.82857142857143,0.013483885729791568
49.94285714285714,0.013804135081390688
50.05714285714286,0.014029659101646535
50.17142857142857,0.014146703535924657
50.285714285714285,0.014151850777773619
50.4,0.01405230696356745
50.51428571428571,0.013864536609018756
50.628571428571426,0.013611556406369109
50.74285714285714,0.013319478273118999
50.857142857142854,0.013014009125024241
50.97142857142857,0.012717546987275893
51.08571428571428,0.012447293580293253
51.199999999999996,0.012214509371718078
51.31428571428571,0.012024760220633698
51.42857142857142,0.011878821001974748
51.542857142857144,0.011773848027616676
51.65714285714286,0.0117044996013725
51.77142857142857,0.011663826445295445
51.885714285714286,0.011643908100655232
52.0,0.011636321837688698
52.114285714285714,0.011632566735927392
52.22857142857143,0.011624529971887931
52.34285714285714,0.011605005062220296
52.457142857142856,0.011568195360463725
52.57142857142857,0.011510096976692806
52.68571428571428,0.011428669592526922
52.8,0.011323762301944722
52.91428571428571,0.011196836412673036
53.028571428571425,0.01105058444009182
53.14285714285714,0.01088856022560848
53.25714285714285,0.01071490451081864
53.37142857142857,0.010534188869954724
53.48571428571429,0.010351336386284101
53.6,0.010171537319829959
53.714285714285715,0.01000007797934676
53.82857142857143,0.009842039399311489
53.94285714285714,0.009701882106494222
54.05714285714286,0.009582989721795849
54.17142857142857,0.009487275729634592
54.285714285714285,0.00941495378469499
54.4,0.009364535686763056
54.51428571428571,0.009333067108419595
54.628571428571426,0.009316558277624218
54.74285714285714,0.009310531038076084
54.857142857142854,0.009310592615239187
54.97142857142857,0.009312957847300104
55.08571428571428,0.009314866233892487
