Frequency,PSD
6.0,0.353916157036778
6.08,0.3563056761720752
6.16,0.36105767530991084
6.24,0.36803199349296517
6.32,0.37686700798131134
6.4,0.3869295505346499
6.48,0.39736538606964905
6.5600000000000005,0.40723338184450353
6.640000000000001,0.4156687223067752
6.72,0.42202115986215066
6.8,0.4259397043249949
6.88,0.42740128669348154
6.96,0.4266944666098343
7.04,0.42437193417187313
7.12,0.42118438039146544
7.2,0.4180059362623683
7.28,0.41575626084019995
7.36,0.41531729700279457
7.44,0.4174397106844869
7.5200000000000005,0.4226406742336496
7.6000000000000005,0.4311083305475928
7.68,0.4426381835825227
7.76,0.45662334467802046
7.84,0.4721056143281086
7.92,0.4878798323152466
8.0,0.5026407973828312
8.08,0.5151684552964658
8.16,0.524548079457885
8.24,0.5304039135732455
8.32,0.5330909059330593
8.4,0.5337635192312677
8.48,0.5342500533287002
8.56,0.5367130937895354
8.64,0.5431525833904077
8.72,0.5548750049705644
8.8,0.5720831572389583
8.88,0.5937238304235457
8.96,0.6176676122255429
9.040000000000001,0.6412012937159761
9.120000000000001,0.6617160673359611
9.200000000000001,0.677405713741241
9.28,0.6877710783456417
9.36,0.6937660368952261
9.44,0.6975090552555083
9.52,0.7016108555343505
9.6,0.7083082424705713
9.68,0.7186982016918384
9.76,0.7323710170220771
9.84,0.747609954291722
9.92,0.7620952823321204
10.0,0.7738314697145536
10.08,0.7819257962370665
10.16,0.786929375608977
10.24,0.7906505981366575
10.32,0.7955525219987548
10.4,0.803959984850927
10.48,0.8173138388968003
10.56,0.8356640277309308
10.64,0.8575386421453439
10.72,0.8802670780211607
10.8,0.900738490452241
10.88,0.9164245632586037
10.96,0.9263368478978411
11.040000000000001,0.9315275744447032
11.120000000000001,0.9348622702317346
11.200000000000001,0.9400741638769189
11.28,0.9504220643339617
11.36,0.9674475752969959
11.44,0.9902724905451326
11.52,1.0156371649219884
11.6,1.0385999994906683
11.68,1.053639605606215
11.76,1.0558734470355733
11.84,1.0421695638246191
11.92,1.011982809281058
12.0,0.9677522865846276
12.08,0.9147023924027349
12.16,0.8599783320117915
12.24,0.8112356917894947
12.32,0.7750086422901139
12.4,0.7552811244520339
12.48,0.7526238678409478
12.56,0.7640865636344027
12.64,0.7838463651776473
12.72,0.8044692838710976
12.8,0.8185326000358901
12.88,0.8202623947368669
12.96,0.8067843901531777
13.040000000000001,0.7786335267343767
13.120000000000001,0.7393589040007681
13.200000000000001,0.6943523656190592
13.280000000000001,0.6492989072446453
13.36,0.6087645614271525
13.44,0.5753453309256493
13.52,0.5495510588728658
13.6,0.5303179382824007
13.68,0.5158561045098841
13.76,0.504496149399863
13.84,0.4952701785013675
13.92,0.48808443676311736
14.0,0.4834688710581543
14.08,0.482016429888571
14.16,0.4837425277637233
14.24,0.48765782953419545
14.32,0.49179152840282514
14.4,0.4937104597516504
14.48,0.49132983046104606
14.56,0.48364733930866455
14.64,0.47106301202963197
14.72,0.45515935110418126
14.8,0.43807945985737257
14.88,0.4218008719509442
14.96,0.4075901543634941
15.040000000000001,0.3957850360663845
15.120000000000001,0.3858940047997378
15.200000000000001,0.37690871381575813
15.280000000000001,0.36770310951956553
15.36,0.35740857811510907
15.44,0.34567426320301015
15.52,0.33274567870715077
15.6,0.3193399829076679
15.68,0.3063643321511951
15.76,0.2945863548841111
15.84,0.2843842606250512
15.92,0.2756627349132754
16.0,0.2679425194559151
16.080000000000002,0.2605616450685828
16.16,0.2528991770051064
16.240000000000002,0.24455051954298185
16.32,0.23542236581069576
16.4,0.22574672992490719
16.48,0.21602476073616517
16.56,0.20690998247267708
16.64,0.19904375614703443
16.72,0.19287210424500253
16.8,0.18849494898167873
16.88,0.1856065862339843
16.96,0.18356371613452388
17.04,0.1815675008542567
17.12,0.17889356039173923
17.2,0.17508035110429448
17.28,0.17000844890576625
17.36,0.16385872651911662
17.44,0.1569929669494065
17.52,0.1498248453831504
17.6,0.14273404901886927
17.68,0.13603851354261504
17.76,0.13000575690346877
17.84,0.12487083329986978
17.92,0.12083526246546505
18.0,0.11803797578811288
18.080000000000002,0.11650617211340858
18.16,0.11610659239258124
18.240000000000002,0.11652401005455451
18.32,0.11729033005006817
18.400000000000002,0.1178716956336108
18.48,0.11779546496033616
18.56,0.11677528235440926
18.64,0.11478546156146535
18.72,0.11205340664726934
18.8,0.1089744072542629
18.88,0.10598791723433856
18.96,0.10346798123285054
19.04,0.10166455215759804
19.12,0.1006975642070562
19.2,0.10057537567905166
19.28,0.1012046502826924
19.36,0.10238284302731263
19.44,0.10379775326025341
19.52,0.10507169491392061
19.6,0.10586397193866019
19.68,0.10599696651313628
19.76,0.10553491585747302
19.84,0.10475454647860738
19.92,0.10400535108107728
20.0,0.10352779029346007
20.080000000000002,0.1033296485724283
20.16,0.10318885327481554
20.240000000000002,0.10277578377926326
20.32,0.10182045156186906
20.400000000000002,0.10023287042588964
20.48,0.0981234976201379
20.56,0.09573310687538521
20.64,0.09332645695865303
20.72,0.09110913838292004
20.8,0.08919819307896787
20.88,0.08763878383976124
20.96,0.08643541991185735
21.04,0.08556779632879732
21.12,0.08498260737235871
21.2,0.08457722483328321
21.28,0.08420156123535644
21.36,0.0836931284297448
21.44,0.08293463912016164
21.52,0.0819017822661529
21.6,0.08066797847446301
21.68,0.07935611548167285
21.76,0.07806052676073823
21.84,0.0767838386240767
21.92,0.07542786842139684
22.0,0.0738478381913355
22.080000000000002,0.07194258500123686
22.16,0.06973179044058946
22.240000000000002,0.06737678013618227
22.32,0.06513073251378729
22.400000000000002,0.06324099920846452
22.48,0.061850979195826224
22.56,0.06094871990668313
22.64,0.060384704031261026
22.72,0.05994589900105026
22.8,0.05944656378128031
22.88,0.05879246314856163
22.96,0.05799426252098821
23.04,0.05713489647550404
23.12,0.056317086356411084
23.2,0.05562004713299671
23.28,0.055080515945706385
23.36,0.054694374885324984
23.44,0.05442454664478704
23.52,0.0542042202883792
23.6,0.05393661048483554
23.68,0.053501732271766064
23.76,0.052778463453719136
23.84,0.05167808848767195
23.92,0.05017412893409394
24.0,0.048312812908723114
24.080000000000002,0.04619982829469912
24.16,0.04397282698445977
24.240000000000002,0.04177466937105901
24.32,0.03973652429493605
24.400000000000002,0.037969146286920566
24.48,0.036554486278512516
24.560000000000002,0.035532680721906254
24.64,0.034887862124955066
24.72,0.03454247167244836
24.8,0.03436844373363026
24.88,0.034215465124802495
24.96,0.033947182940513056
25.04,0.0334719576652948
25.12,0.03275792776764662
25.2,0.03183013402349952
25.28,0.030754965799315005
25.36,0.029620157804311004
25.44,0.0285165549363056
25.52,0.027523698419525244
25.6,0.026698518485414813
25.68,0.026066684139660967
25.76,0.02561826996065449
25.84,0.025310660509061358
25.92,0.02508022942482813
26.0,0.024860876273510784
26.080000000000002,0.02460425756155945
26.16,0.024295442581665556
26.240000000000002,0.02395895035329685
26.32,0.023652622187395056
26.400000000000002,0.023449773470133575
26.48,0.023413629267019124
26.560000000000002,0.023571992733913905
26.64,0.02390257532142073
26.72,0.024337462764490614
26.8,0.024787473488011136
26.88,0.02517657446418293
26.96,0.02546949611397309
27.04,0.025677890315017552
27.12,0.025841844855742282
27.2,0.025997684115477804
27.28,0.02615066642612678
27.36,0.02626737129786505
27.44,0.02628996869536119
27.52,0.02616174909590689
27.6,0.02584853824429396
27.68,0.0253461110289769
27.76,0.02467440329449474
27.84,0.023867116847980423
27.92,0.0229653064299336
28.0,0.022017275641719045
28.080000000000002,0.02108056743898469
28.16,0.02022014503344932
28.240000000000002,0.01950046263576252
28.32,0.018974305281511096
28.400000000000002,0.018673854877636172
28.48,0.01860798237505394
28.560000000000002,0.018765904366752312
28.64,0.01912383829699864
28.72,0.019650050032834362
28.8,0.02030506953498776
28.88,0.0210370211929878
28.96,0.02177551756917706
29.04,0.022429750533235072
29.12,0.022895926686358016
29.2,0.023075643184297612
29.28,0.022901320962014124
29.36,0.022359946550061828
29.44,0.021504941223841688
29.52,0.020449369867192313
29.6,0.019340736330462446
29.68,0.0183249524905304
29.76,0.017511161179435828
29.84,0.01694827405554352
29.92,0.01661932921246599
30.0,0.01645366544921563
30.080000000000002,0.016351854711412102
30.16,0.016215465567129984
30.240000000000002,0.0159731200000462
30.32,0.015595775231020422
30.400000000000002,0.01509759554643393
30.48,0.014523611366017111
30.560000000000002,0.01393003482516323
30.64,0.013365462691121191
30.72,0.012859871393524172
30.8,0.012423898593584367
30.88,0.012055857720425483
30.96,0.011750990400775131
31.04,0.011507882379502619
31.12,0.011329857175876175
31.2,0.011222344474100287
31.28,0.011188851220765171
31.36,0.011227827459647807
31.44,0.01133133872165356
31.52,0.01148529720736903
31.6,0.011670681283471925
31.68,0.011865414425427117
31.76,0.012046761988786108
31.84,0.012193974969186894
31.92,0.012290738325897284
32.0,0.012327122717073955
32.08,0.012301095663596565
32.160000000000004,0.012219705449881667
32.24,0.012099494355905394
32.32,0.011964945675711386
32.4,0.011843751438400213
32.480000000000004,0.011758973002833423
32.56,0.011720254754007467
32.64,0.01171776332323926
32.72,0.01172220559588093
32.8,0.011691991073333808
32.88,0.011585506121881372
32.96,0.01137424622316597
33.04,0.011052320607561394
33.12,0.010639507751275602
33.2,0.010177518244055725
33.28,0.00972114952871713
33.36,0.009326915090766458
33.44,0.009041639749852429
33.52,0.008893051455295042
33.6,0.008884065696026126
33.68,0.00899220540391751
33.76,0.009174904284547297
33.84,0.009379878755427269
33.92,0.009557678952006786
34.0,0.009672194666836244
34.08,0.009705594737242789
34.160000000000004,0.009656966372841514
34.24,0.009537114940587545
34.32,0.009363304581036678
34.4,0.009156250508255782
34.480000000000004,0.008938815204722601
34.56,0.008734168529291916
34.64,0.00856205146985287
34.72,0.008434235016429039
34.800000000000004,0.008351888742653073
34.88,0.008306818492433782
34.96,0.008286031961521736
35.04,0.008276932045893033
35.12,0.00827025773276564
35.2,0.00825962993647445
35.28,0.00823880764404809
35.36,0.00819907345915087
35.44,0.008129018287103966
35.52,0.0080177325806936
35.6,0.007860680097582003
35.68,0.007665906906809733
35.76,0.007457306667047471
35.84,0.0072720678865003
35.92,0.007151499349793049
36.0,0.007127597310847268
36.08,0.007210426869502015
36.160000000000004,0.007381898636986659
36.24,0.007599142236874195
36.32,0.007806461995857607
36.4,0.007951080280083008
36.480000000000004,0.00799659681980725
36.56,0.007929856486337442
36.64,0.007760445539037864
36.72,0.007515144738238741
36.800000000000004,0.007230722434728963
36.88,0.006947363088069388
36.96,0.006703130545524954
37.04,0.006528799351636209
37.12,0.006442841424422721
37.2,0.006447648146467896
37.28,0.006528838341790097
37.36,0.006658874904119224
37.44,0.006804447014759886
37.52,0.006935259958392469
37.6,0.00703107860342199
37.68,0.007084502387901234
37.76,0.007098694827494164
37.84,0.007081411593210593
37.92,0.007038308877455478
38.0,0.006968907110939967
38.08,0.0068673536398404685
38.160000000000004,0.006727617295848847
38.24,0.006550132753827586
38.32,0.006345731976403974
38.4,0.006133914807461836
38.480000000000004,0.005935694311044079
38.56,0.005764615597386514
38.64,0.005620970551676433
38.72,0.005492684028666156
38.800000000000004,0.005362665526367744
38.88,0.005218816459338859
38.96,0.005061493883686953
39.04,0.0049047468671232055
39.12,0.004770976699980715
39.2,0.004681826883568345
39.28,0.004649491629682907
39.36,0.004671892505589128
39.44,0.00473310640806684
39.52,0.004808241697399258
39.6,0.004870552834576887
39.68,0.004898266087724145
39.76,0.00487919607427919
39.84,0.004812356937912864
39.92,0.004706910020980013
40.0,0.004579467282920216
40.08,0.004450743954418665
40.160000000000004,0.004342018414572393
40.24,0.004271389088661721
40.32,0.004249952769939443
40.4,0.004278741467241762
40.480000000000004,0.004347858519024661
40.56,0.0044389368349621785
40.64,0.004530645038058872
40.72,0.004605282762287222
40.800000000000004,0.0046537280412050925
40.88,0.004676757361904435
40.96,0.0046825867717966135
41.04,0.004682197138876328
41.12,0.0046846419624728625
41.2,0.004694004361881061
41.28,0.004708633808478079
41.36,0.004722476736071985
41.44,0.004727932456030969
41.52,0.004719438996961351
41.6,0.004696644092601204
41.68,0.004665704624228009
41.76,0.004637521301707774
41.84,0.004622919589158609
41.92,0.004626565050047486
42.0,0.004642656317885921
42.08,0.004655078520400908
42.160000000000004,0.004642580637159053
42.24,0.004586806694591322
42.32,0.004479402882503337
42.4,0.004325006644441418
42.480000000000004,0.004139271097580001
42.56,0.003943597479710418
42.64,0.003759398493446745
42.72,0.0036040860012627116
42.800000000000004,0.003489392330281414
42.88,0.0034213287016164563
42.96,0.003400741756478293
43.04,0.003423869150790582
43.12,0.003482887112578252
43.2,0.0035667247432162597
43.28,0.0036623583173045655
43.36,0.0037565936625892377
43.44,0.0038381230041073956
43.52,0.0038993993315797814
43.6,0.00393765552873375
43.68,0.003954433342870968
43.76,0.00395350527551349
43.84,0.0039379606807023355
43.92,0.003907938747018617
44.0,0.0038603964578196037
44.08,0.0037912499920361026
44.160000000000004,0.003698799821298393
44.24,0.0035864859651416753
44.32,0.0034633277653277686
44.4,0.003341696550216676
44.480000000000004,0.0032335291042031797
44.56,0.0031468610680989925
44.64,0.0030842910833666585
44.72,0.0030439365732815634
44.800000000000004,0.0030222035508033727
44.88,0.0030168413998993455
44.96,0.003028636404387181
45.04,0.0030607634435453855
45.12,0.003115998993403011
45.2,0.0031931685963697103
45.28,0.003284749445732352
45.36,0.00337711445310771
45.44,0.0034536506627155447
45.52,0.0034995673831317645
45.6,0.003506394601647655
45.68,0.0034743566478196743
45.76,0.0034117997435936798
45.84,0.003332076356201419
45.92,0.003249184453152608
46.0,0.0031737590682623038
46.08,0.003110736255030472
46.160000000000004,0.0030593158256033565
46.24,0.0030149642981215814
46.32,0.0029724252166245073
46.4,0.0029283746470752485
46.480000000000004,0.0028826636332899593
46.56,0.002837888339679625
46.64,0.002797878433535312
46.72,0.002766111762940275
46.800000000000004,0.0027448486871086905
46.88,0.0027351410393783825
46.96,0.0027372629281291645
47.04,0.0027509192887460038
47.12,0.0027748931191488163
47.2,0.0028063455012270443
47.28,0.002840383968037794
47.36,0.0028704685864242366
47.44,0.0028897337229484912
47.52,0.0028926863458423636
47.6,0.0028764388908722287
47.68,0.0028408924766707908
47.76,0.0027879477907333597
47.84,0.0027204139956435967
47.92,0.0026413759922345494
48.0,0.002554315532359557
48.08,0.0024636358642307794
48.160000000000004,0.00237490897428385
48.24,0.002294373784108468
48.32,0.002227762134258439
48.4,0.002178988988373147
48.480000000000004,0.002149314954550327
48.56,0.0021373048976666004
48.64,0.002139530019198456
48.72,0.0021517232703521447
48.800000000000004,0.002170032144427521
48.88,0.002192019756064832
48.96,0.0022170944909221182
49.04,0.0022461705230169757
49.120000000000005,0.0022806466840541786
49.2,0.0023211483337997815
49.28,0.002366661455495342
49.36,0.002414510963626923
49.44,0.002461167176824701
49.52,0.0025034127365844774
49.6,0.0025392607009401373
49.68,0.0025682273676955365
49.76,0.002590926742946642
49.84,0.0026082300179412765
49.92,0.0026203443209675027
50.0,0.00262617598178019
50.08,0.002623301532556181
50.160000000000004,0.0026087122766001516
50.24,0.002580158548050396
50.32,0.0025375047915216636
50.4,0.0024833122359253605
50.480000000000004,0.0024221476027888773
50.56,0.0023588095771413277
50.64,0.002296348930260119
50.72,0.0022349487035593432
50.800000000000004,0.002172267944644639
50.88,0.0021050402813094227
50.96,0.0020310875290281694
51.04,0.001950811782993906
51.120000000000005,0.0018676190878789793
51.2,0.001787268477401252
51.28,0.0017165112522426335
51.36,0.0016614892222936196
51.44,0.0016262963296837483
51.52,0.001612005812781231
51.6,0.0016163702843480232
51.68,0.0016342897730245356
51.76,0.0016589912588686837
51.84,0.0016836880748507047
51.92,0.001703324985097808
52.0,0.001715909884248976
52.08,0.0017229501391582882
52.160000000000004,0.0017287182765114272
52.24,0.0017384681409435016
52.32,0.001756175946853308
52.4,0.0017826603957705415
52.480000000000004,0.0018148580111799952
52.56,0.0018465948271676
52.64,0.001870599015125398
52.72,0.0018810068987478758
52.800000000000004,0.0018754192990244611
52.88,0.001855725077825679
52.96,0.0018273684675506338
53.04,0.001797349379744225
53.120000000000005,0.001771779635835009
53.2,0.0017540112963075356
53.28,0.0017440597770768508
53.36,0.0017393804321876342
53.44,0.001736388845750684
53.52,0.0017318367152285288
53.6,0.0017234128382856819
53.68,0.0017095267763994918
53.76,0.0016887523872120488
53.84,0.0016595515841623734
53.92,0.001620633908937677
54.0,0.0015718500349847452
54.08,0.0015151492421217093
54.160000000000004,0.0014550292011890993
54.24,0.001398086041306632
54.32,0.0013516342205037164
54.4,0.0013217672568540696
54.480000000000004,0.001311526410168307
54.56,0.0013199032888984615
54.64,0.0013421465091040773
54.72,0.0013713187779903515
54.800000000000004,0.0014004719412156867
54.88,0.0014244872419808836
54.96,0.0014407996609771944
55.04,0.0014488511689006445
