Frequency,PSD
6.057142857142857,0.48534289372176964
6.171428571428571,0.484028841488537
6.285714285714286,0.4829572910577833
6.3999999999999995,0.47964112873083964
6.514285714285714,0.4670755420780926
6.628571428571428,0.4422521479259398
6.742857142857143,0.4125244487524119
6.857142857142857,0.3913717361457063
6.9714285714285715,0.39076197431392334
7.085714285714285,0.4181104085975163
7.2,0.47408824200397415
7.314285714285714,0.5472747628595491
7.428571428571428,0.6145353143915137
7.542857142857143,0.6564298288573542
7.657142857142857,0.6746699568621515
7.771428571428571,0.6904242532362812
7.885714285714285,0.7287281327583859
8.0,0.8103684973662384
8.114285714285714,0.9544935679055109
8.228571428571428,1.1798381279982872
8.342857142857143,1.492930033538487
8.457142857142857,1.8588721284677747
8.571428571428571,2.180354461193114
8.685714285714285,2.3318778340754527
8.799999999999999,2.242825834282126
8.914285714285715,1.950152629655511
9.028571428571428,1.5666528857959046
9.142857142857142,1.2052723430580063
9.257142857142856,0.9321405871846183
9.371428571428572,0.7671138258834549
9.485714285714286,0.7051831786304997
9.6,0.7367418170413169
9.714285714285714,0.8580954292939637
9.828571428571427,1.0679628021743879
9.942857142857143,1.351885072854488
10.057142857142857,1.6644748522331108
10.17142857142857,1.9251234686865872
10.285714285714285,2.0415158326936105
10.4,1.9603899760564576
10.514285714285714,1.7091243002439203
10.628571428571428,1.3769265509163522
10.742857142857142,1.0497119000034647
10.857142857142858,0.772728562114056
10.971428571428572,0.5621308077378164
11.085714285714285,0.42095258680334596
11.2,0.338893346309309
11.314285714285713,0.29298278701817815
11.428571428571429,0.25804002243125657
11.542857142857143,0.21936798649590894
11.657142857142857,0.1776231374625947
11.77142857142857,0.14209983420284156
11.885714285714286,0.11979763345371429
12.0,0.11059676744116975
12.114285714285714,0.10962889215864055
12.228571428571428,0.11164054636864126
12.342857142857142,0.1141519978118652
12.457142857142857,0.11808861189850207
12.571428571428571,0.12539461548973638
12.685714285714285,0.1359303546192078
12.799999999999999,0.14663869712016453
12.914285714285715,0.15337046552843436
13.028571428571428,0.15384276198745164
13.142857142857142,0.1490057870614182
13.257142857142856,0.14117325962002236
13.371428571428572,0.13196122242197927
13.485714285714286,0.12317029199110792
13.6,0.11772177966180875
13.714285714285714,0.11759733837436817
13.828571428571427,0.12190098367240969
13.942857142857143,0.12865012096356732
14.057142857142857,0.13781764571169017
14.17142857142857,0.1502970616769354
14.285714285714285,0.16338720379532007
14.4,0.17068233150147366
14.514285714285714,0.1690884182531235
14.628571428571428,0.1633826178295458
14.742857142857142,0.160729906627235
14.857142857142856,0.16236304614823113
14.971428571428572,0.16363783159911643
15.085714285714285,0.16154578679743253
15.2,0.1591055866451729
15.314285714285713,0.16142185261610317
15.428571428571429,0.16980510443122726
15.542857142857143,0.1818647247457174
15.657142857142857,0.19527949887710724
15.77142857142857,0.20812012000827662
15.885714285714284,0.2174050186861684
16.0,0.22131593655868365
16.114285714285714,0.22110592968789733
16.228571428571428,0.21822124385668273
16.34285714285714,0.21238491115943517
16.457142857142856,0.2041936144596166
16.57142857142857,0.1963436649095337
16.685714285714287,0.190629414364333
16.8,0.18594609116320937
16.914285714285715,0.18078536892768488
17.02857142857143,0.17630451363942828
17.142857142857142,0.17506517783306624
17.257142857142856,0.1770239849997657
17.37142857142857,0.17821347961247608
17.485714285714284,0.17372890500466978
17.599999999999998,0.1618972758479671
17.714285714285715,0.14595547269246997
17.82857142857143,0.1313677937534876
17.942857142857143,0.12088992516651667
18.057142857142857,0.1127684483719222
18.17142857142857,0.10385209277811697
18.285714285714285,0.09324520988982869
18.4,0.08262772859043101
18.514285714285712,0.07433924950057197
18.628571428571426,0.06992229760999362
18.742857142857144,0.0695654003142488
18.857142857142858,0.07189574132072474
18.97142857142857,0.07460753258975503
19.085714285714285,0.076017546926363
19.2,0.0761244924045309
19.314285714285713,0.07600206997349557
19.428571428571427,0.07628193524214838
19.54285714285714,0.07674071875029535
19.657142857142855,0.07749307414260774
19.771428571428572,0.07963044801442125
19.885714285714286,0.0840365656738948
20.0,0.09029421427220802
20.114285714285714,0.09709301145538676
20.228571428571428,0.10280206173524585
20.34285714285714,0.10552210196884917
20.457142857142856,0.10393537266659397
20.57142857142857,0.0986417143378158
20.685714285714287,0.09162367756220596
20.8,0.08424154805660793
20.914285714285715,0.07681800928874562
21.02857142857143,0.06978231110688933
21.142857142857142,0.0637053216396245
21.257142857142856,0.058411917704355054
21.37142857142857,0.053361672254489824
21.485714285714284,0.04894619253095935
21.599999999999998,0.04655175261578728
21.714285714285715,0.04697993806641283
21.82857142857143,0.0490689280250928
21.942857142857143,0.050320723282856084
22.057142857142857,0.049011868220360584
22.17142857142857,0.04549204453116808
22.285714285714285,0.041536081304048136
22.4,0.03879168063714896
22.514285714285712,0.03780783648959685
22.628571428571426,0.03811647303317689
22.742857142857144,0.03880613262038683
22.857142857142858,0.03888928883158315
22.97142857142857,0.037560155513137156
23.085714285714285,0.03477721757386515
23.2,0.03166150560256042
23.314285714285713,0.02978560995285221
23.428571428571427,0.029837695414821265
23.54285714285714,0.031143162805283457
23.657142857142855,0.03242081275518524
23.771428571428572,0.03289035422408442
23.885714285714286,0.03280051686230859
24.0,0.0329028621676684
24.114285714285714,0.03341941651017444
24.228571428571428,0.033851868141630805
24.34285714285714,0.03379333205612458
24.457142857142856,0.033391417082480945
24.57142857142857,0.03291812818980832
24.685714285714283,0.03237984479444824
24.8,0.0316865069189745
24.914285714285715,0.030838947466035504
25.02857142857143,0.029881835076351195
25.142857142857142,0.028921494132218888
25.257142857142856,0.028143996977883105
25.37142857142857,0.02770625321884118
25.485714285714284,0.027730569711250045
25.599999999999998,0.0283230302562045
25.71428571428571,0.029386242683706855
25.82857142857143,0.030469249948426015
25.942857142857143,0.03089196960321406
26.057142857142857,0.0301129733552525
26.17142857142857,0.028230615887014327
26.285714285714285,0.026077898026355205
26.4,0.024474335356569663
26.514285714285712,0.023430644203821696
26.628571428571426,0.022377949146154645
26.742857142857144,0.021071776543621225
26.857142857142858,0.019939187060221172
26.97142857142857,0.019466859322450042
27.085714285714285,0.01951302665775748
27.2,0.019487040535779227
27.314285714285713,0.01906900160414295
27.428571428571427,0.01843458314038561
27.54285714285714,0.017856750277204025
27.657142857142855,0.017415394542287802
27.771428571428572,0.017089897360750436
27.885714285714286,0.016869155891396842
28.0,0.016693728203268168
28.114285714285714,0.016438182966598193
28.228571428571428,0.016056742683254438
28.34285714285714,0.015697448908758745
28.457142857142856,0.015564785334322755
28.57142857142857,0.015630466761984155
28.685714285714283,0.015566065843900098
28.8,0.015070327604470437
28.914285714285715,0.014210531056445354
29.02857142857143,0.01331712022050899
29.142857142857142,0.012621718868208991
29.257142857142856,0.012166276233612851
29.37142857142857,0.011983771614612344
29.485714285714284,0.012162143507779805
29.599999999999998,0.012739631816515147
29.71428571428571,0.013636801755226306
29.82857142857143,0.014637218920771538
29.942857142857143,0.015402335349251464
30.057142857142857,0.015671551855944175
30.17142857142857,0.015538102553285055
30.285714285714285,0.015381881794669584
30.4,0.015497074808710612
30.514285714285712,0.015905483158993348
30.628571428571426,0.016414084636708605
30.74285714285714,0.016704358998753704
30.857142857142858,0.016565704000901245
30.97142857142857,0.016161809840170148
31.085714285714285,0.01586599002009568
31.2,0.015830889767353862
31.314285714285713,0.015950123854448012
31.428571428571427,0.01618605171318626
31.54285714285714,0.016655293226074255
31.657142857142855,0.017333639023254854
31.77142857142857,0.01786064831125715
31.885714285714286,0.017791679255418556
32.0,0.01698653172185439
32.114285714285714,0.015620438855271437
32.22857142857143,0.013956347650030945
32.34285714285714,0.012356934690633068
32.457142857142856,0.011400256386356378
32.57142857142857,0.011644145961731783
32.68571428571428,0.013122430831460917
32.8,0.015096593124379455
32.91428571428571,0.016428031385788102
33.028571428571425,0.01637142953178312
33.14285714285714,0.01505990516302956
33.25714285714285,0.013200283230578605
33.371428571428574,0.011421001301282494
33.48571428571429,0.01002222443558457
33.6,0.009154989300122337
33.714285714285715,0.008917472696102413
33.82857142857143,0.009219849191383791
33.94285714285714,0.009736624651493825
34.05714285714286,0.01010693335205896
34.17142857142857,0.010166804110773118
34.285714285714285,0.009995658930224938
34.4,0.009771794999385642
34.51428571428571,0.009566845730046614
34.628571428571426,0.009295394493608774
34.74285714285714,0.008906383540066357
34.857142857142854,0.008553732040197208
34.97142857142857,0.008461123203702976
35.08571428571428,0.00863337586006237
35.199999999999996,0.008808383771193966
35.31428571428572,0.008729241401529177
35.42857142857143,0.008414910226692045
35.542857142857144,0.008130527045880062
35.65714285714286,0.008121760350457755
35.77142857142857,0.008398312238270457
35.885714285714286,0.008717210940670857
36.0,0.008757983840497169
36.114285714285714,0.008409317417000857
36.22857142857143,0.007907499393747908
36.34285714285714,0.00761505577261808
36.457142857142856,0.0076909014181195355
36.57142857142857,0.008050455553350573
36.68571428571428,0.008550167279696716
36.8,0.009071804059347256
36.91428571428571,0.009487736274642602
37.028571428571425,0.009690890939205464
37.14285714285714,0.009671369849329762
37.25714285714285,0.009502375846376691
37.371428571428574,0.009259056151752057
37.48571428571429,0.008985602584619237
37.6,0.008719464638302128
37.714285714285715,0.00849100111425482
37.82857142857143,0.00826894833251876
37.94285714285714,0.00795629500531413
38.05714285714286,0.007516589465326632
38.17142857142857,0.007066216787841487
38.285714285714285,0.006757383974730195
38.4,0.006620679984101407
38.51428571428571,0.00660060254247211
38.628571428571426,0.006667345020770021
38.74285714285714,0.00681141738670556
38.857142857142854,0.00701610997023678
38.97142857142857,0.00731140340479958
39.08571428571428,0.007766293821464593
39.199999999999996,0.008360330241999676
39.31428571428571,0.008929460381630125
39.42857142857143,0.00927502525764993
39.542857142857144,0.009280375101649491
39.65714285714286,0.008930897276973515
39.77142857142857,0.008299577455299028
39.885714285714286,0.007544492090988184
40.0,0.006875441329602564
40.114285714285714,0.006478708192668242
40.22857142857143,0.00644915513426007
40.34285714285714,0.006757131135429497
40.457142857142856,0.007267842424920329
40.57142857142857,0.007809006872629862
40.68571428571428,0.008223289793672279
40.8,0.008387899744052138
40.91428571428571,0.00825961669063897
41.028571428571425,0.007942014157540504
41.14285714285714,0.0076667613512480925
41.25714285714285,0.007625261517102076
41.371428571428574,0.00779558433238191
41.48571428571429,0.007984124638406857
41.6,0.008048001640549467
41.714285714285715,0.008039015693558381
41.82857142857143,0.008128785855650784
41.94285714285714,0.00841331875545611
42.05714285714286,0.008789331686666778
42.17142857142857,0.009016279112474521
42.285714285714285,0.008892707658562947
42.4,0.00838449573988204
42.51428571428571,0.007626240628827072
42.628571428571426,0.0068121705874496985
42.74285714285714,0.006073720058768259
42.857142857142854,0.005467632204279673
42.97142857142857,0.005037743848334768
43.08571428571428,0.004811058013170846
43.199999999999996,0.004751103000967761
43.31428571428571,0.004773960813511863
43.42857142857143,0.004791830016880179
43.542857142857144,0.004726165402933056
43.65714285714286,0.004537820444976012
43.77142857142857,0.0042752283353405625
43.885714285714286,0.004057261845184298
44.0,0.00398841516075653
44.114285714285714,0.0040892159067881
44.22857142857143,0.004291992226190635
44.34285714285714,0.00450333932111633
44.457142857142856,0.004687035687615554
44.57142857142857,0.00487898977549481
44.68571428571428,0.0051116825596812954
44.8,0.005340441491196367
44.91428571428571,0.005460883561576997
45.028571428571425,0.005402395659664024
45.14285714285714,0.005200342314231771
45.25714285714285,0.004969838030311836
45.37142857142857,0.004810057097622164
45.48571428571429,0.0047353502962931915
45.6,0.004698113877503353
45.714285714285715,0.004680993726520047
45.82857142857143,0.004747846836765368
45.94285714285714,0.004971312249033624
46.05714285714286,0.005315965413443925
46.17142857142857,0.00563174648059293
46.285714285714285,0.005784388469937521
46.4,0.00578085378082532
46.51428571428571,0.0057368328745138735
46.628571428571426,0.005718906196031883
46.74285714285714,0.005671639440957088
46.857142857142854,0.005527054069450651
46.97142857142857,0.005325200390206456
47.08571428571428,0.005173298888136318
47.199999999999996,0.005111483208540568
47.31428571428571,0.005064180454606407
47.42857142857143,0.004936589759475733
47.542857142857144,0.004733795959716362
47.65714285714286,0.004556536832716741
47.77142857142857,0.004507298398547344
47.885714285714286,0.004636962121109027
48.0,0.004937073511118016
48.114285714285714,0.005322594228004362
48.22857142857143,0.005651039767357278
48.34285714285714,0.005807692851082787
48.457142857142856,0.005756983038624821
48.57142857142857,0.005520607852263388
48.68571428571428,0.005182051720815785
48.8,0.004919254643587338
48.91428571428571,0.004946271836374787
49.028571428571425,0.005365803625474644
49.14285714285714,0.006069046250921545
49.25714285714285,0.006799809824881816
49.37142857142857,0.007407857814637681
49.48571428571429,0.00819438065666764
49.6,0.010165470033351652
49.714285714285715,0.014866174482859398
49.82857142857143,0.02324669438829734
49.94285714285714,0.03372611049300091
50.05714285714286,0.041648838339029215
50.17142857142857,0.0423158262494336
50.285714285714285,0.03529051496464472
50.4,0.024795289654034724
50.51428571428571,0.015689103373554638
50.628571428571426,0.010018512687564545
50.74285714285714,0.007195948378497798
50.857142857142854,0.005943201808922273
50.97142857142857,0.005433533374277964
51.08571428571428,0.005290944773180853
51.199999999999996,0.005284237360822724
51.31428571428571,0.005226468712619436
51.42857142857142,0.0050340927223063575
51.542857142857144,0.004746062957217383
51.65714285714286,0.00445751195555698
51.77142857142857,0.004251264610659726
51.885714285714286,0.004179401191430897
52.0,0.004271781481956519
52.114285714285714,0.004518044413978501
52.22857142857143,0.0048258394903072386
52.34285714285714,0.005037401036804713
52.457142857142856,0.005030562587632729
52.57142857142857,0.004810150959165498
52.68571428571428,0.004502889078796761
52.8,0.004272601881501275
52.91428571428571,0.0042303419729311465
53.028571428571425,0.004381098684569435
53.14285714285714,0.0046084668938358745
53.25714285714285,0.004731946912674461
53.37142857142857,0.0046603341019049
53.48571428571429,0.0045069161650025565
53.6,0.004493161088788193
53.714285714285715,0.004728480465300442
53.82857142857143,0.005128977984029774
53.94285714285714,0.005529677686256008
54.05714285714286,0.005800168839952334
54.17142857142857,0.0058581890089236584
54.285714285714285,0.005665855308711403
54.4,0.005255916196948063
54.51428571428571,0.004719677519217943
54.628571428571426,0.004144769111059902
54.74285714285714,0.003587763672137362
54.857142857142854,0.0031032349082027017
54.97142857142857,0.0027530921020868433
55.08571428571428,0.0025751025821416605
