Frequency,PSD
6.057142857142857,0.15177112913464752
6.171428571428571,0.1549971686315579
6.285714285714286,0.1612425131981653
6.3999999999999995,0.1701169020351218
6.514285714285714,0.18109016854134893
6.628571428571428,0.19355054781650158
6.742857142857143,0.20686928174943817
6.857142857142857,0.22046171613106003
6.9714285714285715,0.23383592856454885
7.085714285714285,0.24662330432440166
7.2,0.2585905014826053
7.314285714285714,0.2696371388132773
7.428571428571428,0.27978646696827625
7.542857142857143,0.2891762457986554
7.657142857142857,0.2980543117795862
7.771428571428571,0.3067791863146383
7.885714285714285,0.3158222427143897
8.0,0.3257658026165854
8.114285714285714,0.33729171073164965
8.228571428571428,0.35115721858189297
8.342857142857143,0.3681584353244041
8.457142857142857,0.3890847706529771
8.571428571428571,0.41466929725824164
8.685714285714285,0.4455389811275562
8.799999999999999,0.4821655698783933
8.914285714285715,0.5248141664954183
9.028571428571428,0.5734844943006081
9.142857142857142,0.6278416068149013
9.257142857142856,0.6871388259492294
9.371428571428572,0.7501443856202581
9.485714285714286,0.8150913058136764
9.6,0.8796738125967485
9.714285714285714,0.9411108835072335
9.828571428571427,0.9962883091931376
9.942857142857143,1.0419772554088205
10.057142857142857,1.075112897528895
10.17142857142857,1.093104094125317
10.285714285714285,1.0941359676501496
10.4,1.077422545920185
10.514285714285714,1.0433671643042932
10.628571428571428,0.9935954647762223
10.742857142857142,0.930840772618975
10.857142857142858,0.8586840737435063
10.971428571428572,0.7811776008132225
11.085714285714285,0.7024060832972899
11.2,0.6260556619033362
11.314285714285713,0.555061482437421
11.428571428571429,0.49138940895685335
11.542857142857143,0.4359787242529257
11.657142857142857,0.3888388825505421
11.77142857142857,0.34926351894266133
11.885714285714286,0.3161064032612769
12.0,0.2880602340786831
12.114285714285714,0.26388893311360967
12.228571428571428,0.24258281459858227
12.342857142857142,0.22342763169980784
12.457142857142857,0.20599755211854298
12.571428571428571,0.1900949234388284
12.685714285714285,0.1756648249024206
12.799999999999999,0.1627104106111138
12.914285714285715,0.15122786700914717
13.028571428571428,0.1411701057928517
13.142857142857142,0.13243885292108082
13.257142857142856,0.12489782152098239
13.371428571428572,0.11839640967361206
13.485714285714286,0.11279383663729727
13.6,0.10797671992394482
13.714285714285714,0.10386712452426637
13.828571428571427,0.10042153134573607
13.942857142857143,0.09762310580217684
14.057142857142857,0.09547009502592811
14.17142857142857,0.09396275896946743
14.285714285714285,0.09309069361916866
14.4,0.09282216765114716
14.514285714285714,0.09309711675116754
14.628571428571428,0.09382533663483662
14.742857142857142,0.09489079868338743
14.857142857142856,0.09616179210036163
14.971428571428572,0.09750508473794191
15.085714285714285,0.0988010679933294
15.2,0.09995647147542204
15.314285714285713,0.10091196862872785
15.428571428571429,0.10164366724813119
15.542857142857143,0.10215949882462161
15.657142857142857,0.10249309270797496
15.77142857142857,0.10269815459127762
15.885714285714284,0.1028453840926159
16.0,0.10302187628350819
16.114285714285714,0.10333062180777319
16.228571428571428,0.1038862739058223
16.34285714285714,0.10480370505247688
16.457142857142856,0.10617827884772443
16.57142857142857,0.10806055289177827
16.685714285714287,0.11043187079605116
16.8,0.11318930249871997
16.914285714285715,0.11614741594557906
17.02857142857143,0.11906025198273976
17.142857142857142,0.12166077157808206
17.257142857142856,0.12370906691589548
17.37142857142857,0.1250370654989063
17.485714285714284,0.1255778157399937
17.599999999999998,0.12537176016075852
17.714285714285715,0.12454917007739556
17.82857142857143,0.12329469041257755
17.942857142857143,0.1218043781564125
18.057142857142857,0.12024642880091299
18.17142857142857,0.11873418964939578
18.285714285714285,0.11731550258272577
18.4,0.11597777640327857
18.514285714285712,0.11466489551951436
18.628571428571426,0.11330063090221162
18.742857142857144,0.11181327627099856
18.857142857142858,0.11015706221349959
18.97142857142857,0.1083269443908756
19.085714285714285,0.10636448041406227
19.2,0.1043538580934266
19.314285714285713,0.10240882147461923
19.428571428571427,0.10065304846583646
19.54285714285714,0.09919794500005145
19.657142857142855,0.09812228726964232
19.771428571428572,0.09745743781306485
19.885714285714286,0.09718025012297635
20.0,0.09721390173116731
20.114285714285714,0.09743543660121706
20.228571428571428,0.09768812897230339
20.34285714285714,0.09779683008936679
20.457142857142856,0.0975848290166825
20.57142857142857,0.096891013932114
20.685714285714287,0.09558605285733784
20.8,0.09358603096272511
20.914285714285715,0.09086179655395887
21.02857142857143,0.08744247434445787
21.142857142857142,0.08341230111141204
21.257142857142856,0.07890098488569888
21.37142857142857,0.07406889780286426
21.485714285714284,0.0690892973786107
21.599999999999998,0.06413024678741241
21.714285714285715,0.05933890846328177
21.82857142857143,0.05483043503386931
21.942857142857143,0.05068283841490017
22.057142857142857,0.04693808845316619
22.17142857142857,0.043608458656984594
22.285714285714285,0.040686063921515345
22.4,0.0381529211061347
22.514285714285712,0.03598893032179211
22.628571428571426,0.034175960496083554
22.742857142857144,0.03269752975216811
22.857142857142858,0.03153501063718919
22.97142857142857,0.03066240746517037
23.085714285714285,0.030042183965591374
23.2,0.02962421940569205
23.314285714285713,0.029348870146145567
23.428571428571427,0.029153678289539624
23.54285714285714,0.028981985086688485
23.657142857142855,0.02879101253220838
23.771428571428572,0.02855710655647369
23.885714285714286,0.028276729926960502
24.0,0.027963117502556624
24.114285714285714,0.027639778562746475
24.228571428571428,0.02733281105692701
24.34285714285714,0.02706405606396483
24.457142857142856,0.02684653490188144
24.57142857142857,0.026682684339704887
24.685714285714283,0.026565033582107312
24.8,0.026478456335368734
24.914285714285715,0.02640307916339709
25.02857142857143,0.026317211914267023
25.142857142857142,0.02620004181909535
25.257142857142856,0.026034071849613726
25.37142857142857,0.025807287894911414
25.485714285714284,0.02551487048252633
25.599999999999998,0.025160089963059667
25.71428571428571,0.024754001360254782
25.82857142857143,0.024313754018508674
25.942857142857143,0.023859693724494438
26.057142857142857,0.02341181531558781
26.17142857142857,0.022986365035940707
26.285714285714285,0.022593396563377548
26.4,0.022235846799288403
26.514285714285712,0.02191029299389017
26.628571428571426,0.02160910462722386
26.742857142857144,0.021323342997504192
26.857142857142858,0.02104559390598738
26.97142857142857,0.020771993980661856
27.085714285714285,0.020503002490312748
27.2,0.02024287477238783
27.314285714285713,0.0199981636489731
27.428571428571427,0.01977578223939526
27.54285714285714,0.019581155838858697
27.657142857142855,0.01941682557489174
27.771428571428572,0.019281663351791666
27.885714285714286,0.019170727046647313
28.0,0.01907575761968066
28.114285714285714,0.018986331725121892
28.228571428571428,0.01889163025164797
28.34285714285714,0.01878260804089707
28.457142857142856,0.01865410297259928
28.57142857142857,0.01850624734585237
28.685714285714283,0.018344594205695723
28.8,0.01817870497550157
28.914285714285715,0.0180194705008214
29.02857142857143,0.017875941770720206
29.142857142857142,0.017752696451194067
29.257142857142856,0.017648630337456905
29.37142857142857,0.017557576496309044
29.485714285714284,0.017470511409542613
29.599999999999998,0.017378563521156465
29.71428571428571,0.0172758008527461
29.82857142857143,0.017160911625350782
29.942857142857143,0.01703732452768864
30.057142857142857,0.016911860582301676
30.17142857142857,0.016792465310221535
30.285714285714285,0.016685796111138292
30.4,0.016595393739089602
30.514285714285712,0.01652090308145965
30.628571428571426,0.016458440917876252
30.74285714285714,0.016401861242253728
30.857142857142858,0.01634443713554897
30.97142857142857,0.01628040810564208
31.085714285714285,0.016205930450470318
31.2,0.016119176425432386
31.314285714285713,0.016019595883433088
31.428571428571427,0.015906613693270216
31.54285714285714,0.015778221825021112
31.657142857142855,0.01562998370726937
31.77142857142857,0.015454874346690975
31.885714285714286,0.015244147379564945
32.0,0.014989110291576013
32.114285714285714,0.014683396617154322
32.22857142857143,0.014325148669641748
32.34285714285714,0.013918531180625186
32.457142857142856,0.013474184632580197
32.57142857142857,0.013008526486286077
32.68571428571428,0.012542106013656386
32.8,0.012097408090238588
32.91428571428571,0.01169653126544933
33.028571428571425,0.011359058808200371
33.14285714285714,0.011100279590061587
33.25714285714285,0.010929793137264988
33.371428571428574,0.010850507982072006
33.48571428571429,0.010858107637863375
33.6,0.010941148686229326
33.714285714285715,0.01108198354908333
33.82857142857143,0.011258605830187673
33.94285714285714,0.011447299756807076
34.05714285714286,0.01162570620673943
34.17142857142857,0.011775706453594229
34.285714285714285,0.011885475150942557
34.4,0.011950215448780097
34.51428571428571,0.011971428313455998
34.628571428571426,0.011954976316393489
34.74285714285714,0.011908535522372546
34.857142857142854,0.01183916711239191
34.97142857142857,0.011751636730677181
35.08571428571428,0.011647812191513982
35.199999999999996,0.01152710014258519
35.31428571428572,0.011387580495826439
35.42857142857143,0.011227364385207723
35.542857142857144,0.011045757899362886
35.65714285714286,0.010844000366818193
35.77142857142857,0.01062555846636723
35.885714285714286,0.010396099420052297
36.0,0.010163291509820847
36.114285714285714,0.009936505479614974
36.22857142857143,0.009726379809742235
36.34285714285714,0.009544140384194093
36.457142857142856,0.009400579168101927
36.57142857142857,0.009304700373319125
36.68571428571428,0.009262196290076848
36.8,0.009274054932169953
36.91428571428571,0.00933566716617427
37.028571428571425,0.009436757009834677
37.14285714285714,0.00956230771502821
37.25714285714285,0.00969443633616976
37.371428571428574,0.009814941388362624
37.48571428571429,0.009908074929955952
37.6,0.009963017508017629
37.714285714285715,0.009975577350560812
37.82857142857143,0.009948778236513516
37.94285714285714,0.009892206435525606
38.05714285714286,0.009820212288634621
38.17142857142857,0.009749268341654863
38.285714285714285,0.009694944967394325
38.4,0.0096690537820917
38.51428571428571,0.009677508493200405
38.628571428571426,0.009719346162391042
38.74285714285714,0.009787138763545103
38.857142857142854,0.009868733675434975
38.97142857142857,0.009949954027533873
39.08571428571428,0.010017648524798271
39.199999999999996,0.010062382576649254
39.31428571428571,0.010080148747220826
39.42857142857143,0.01007272917903032
39.542857142857144,0.01004669564999184
39.65714285714286,0.010011381968989376
39.77142857142857,0.009976407639905049
39.885714285714286,0.009949404189481027
40.0,0.00993448365806555
40.114285714285714,0.00993173687620234
40.22857142857143,0.00993774313875836
40.34285714285714,0.009946810815781332
40.457142857142856,0.009952526590401637
40.57142857142857,0.009949197139529433
40.68571428571428,0.009932892366244698
40.8,0.009901974194591368
40.91428571428571,0.00985714300389319
41.028571428571425,0.00980110767230707
41.14285714285714,0.00973798604813009
41.25714285714285,0.009672512018753826
41.371428571428574,0.009609114367186667
41.48571428571429,0.009550967140671874
41.6,0.009499174434990643
41.714285714285715,0.009452295836880332
41.82857142857143,0.009406394462657683
41.94285714285714,0.009355682875721142
42.05714285714286,0.00929368321942766
42.17142857142857,0.009214665756394947
42.285714285714285,0.009115041139767688
42.4,0.008994383331786501
42.51428571428571,0.008855843494311184
42.628571428571426,0.008705849321152533
42.74285714285714,0.008553135239531174
42.857142857142854,0.008407290758654427
42.97142857142857,0.00827712652718855
43.08571428571428,0.00816921759009685
43.199999999999996,0.008086965423855693
43.31428571428571,0.008030408939136128
43.42857142857143,0.007996822258225586
43.542857142857144,0.00798191339953885
43.65714285714286,0.007981258532465587
43.77142857142857,0.007991542072635536
43.885714285714286,0.008011255046909851
44.0,0.008040705265892496
44.114285714285714,0.008081434139447254
44.22857142857143,0.008135320135430942
44.34285714285714,0.008203707539506807
44.457142857142856,0.00828681890090828
44.57142857142857,0.008383540359972491
44.68571428571428,0.008491498021301357
44.8,0.008607252094196008
44.91428571428571,0.00872646052582541
45.028571428571425,0.008843981310619848
45.14285714285714,0.008954021380813245
45.25714285714285,0.009050517530247177
45.37142857142857,0.009127897795710544
45.48571428571429,0.00918222148762221
45.6,0.009212489173642362
45.714285714285715,0.00922173853220443
45.82857142857143,0.0092174816137485
45.94285714285714,0.00921113865003898
46.05714285714286,0.00921637053330238
46.17142857142857,0.009246538005933783
46.285714285714285,0.00931181742289789
46.4,0.009416676710670814
46.51428571428571,0.009558391498974684
46.628571428571426,0.009727051616777596
46.74285714285714,0.0099071312778694
46.857142857142854,0.010080283365012722
46.97142857142857,0.010228696938648656
47.08571428571428,0.010338228137359153
47.199999999999996,0.010400615546605037
47.31428571428571,0.010414382123449424
47.42857142857143,0.010384404379249423
47.542857142857144,0.010320469036138584
47.65714285714286,0.010235334224403795
47.77142857142857,0.010142822918580173
47.885714285714286,0.01005632857064374
48.0,0.009987888096986492
48.114285714285714,0.009947771812584598
48.22857142857143,0.009944423291081349
48.34285714285714,0.009984570997033867
48.457142857142856,0.010073390767682974
48.57142857142857,0.010214658347712076
48.68571428571428,0.010410839779559304
48.8,0.010663015811173623
48.91428571428571,0.010970472770601114
49.028571428571425,0.011329799279122464
49.14285714285714,0.011733473096894324
49.25714285714285,0.012168203286129957
49.37142857142857,0.012613612455856656
49.48571428571429,0.013042036067600711
49.6,0.013420122640549835
49.714285714285715,0.013712483393659186
49.82857142857143,0.01388696414632101
49.94285714285714,0.013920437482112323
50.05714285714286,0.01380362334853025
50.17142857142857,0.013543537533868347
50.285714285714285,0.013162750219271824
50.4,0.012695522652464635
50.51428571428571,0.012181769925234332
50.628571428571426,0.011660370848313676
50.74285714285714,0.011163435487517614
50.857142857142854,0.010712750334040901
50.97142857142857,0.010318913876944127
51.08571428571428,0.009982901301735046
51.199999999999996,0.009699199795650757
51.31428571428571,0.009459395343038182
51.42857142857142,0.009255201715040828
51.542857142857144,0.009080311679713533
51.65714285714286,0.008930946285343858
51.77142857142857,0.00880539513140527
51.885714285714286,0.008703052656630602
52.0,0.008623438340864863
52.114285714285714,0.008565514249918046
52.22857142857143,0.008527399532226724
52.34285714285714,0.008506426455429067
52.457142857142856,0.00849942069020119
52.57142857142857,0.00850309129320552
52.68571428571428,0.008514431177686963
52.8,0.008531027826541297
52.91428571428571,0.008551180932570115
53.028571428571425,0.0085737574400826
53.14285714285714,0.008597807409371962
53.25714285714285,0.008622091201041347
53.37142857142857,0.008644762094335614
53.48571428571429,0.008663438090468347
53.6,0.008675757549315323
53.714285714285715,0.008680291337500964
53.82857142857143,0.008677479041083994
53.94285714285714,0.008670172193679106
54.05714285714286,0.00866345674765176
54.17142857142857,0.008663664889218726
54.285714285714285,0.008676780650057591
54.4,0.008706678990613687
54.51428571428571,0.00875372583926427
54.628571428571426,0.008814179561336821
54.74285714285714,0.008880609696620485
54.857142857142854,0.008943265864341953
54.97142857142857,0.008992076009951834
55.08571428571428,0.009018795227755842
