Frequency,PSD
6.057142857142857,0.5816027861577032
6.171428571428571,0.5828167757097539
6.285714285714286,0.5852225861989793
6.3999999999999995,0.5887773428102103
6.514285714285714,0.5934202531025894
6.628571428571428,0.5990764597221031
6.742857142857143,0.6056615899636417
6.857142857142857,0.6130865591317679
6.9714285714285715,0.6212621457547266
7.085714285714285,0.6301028597311789
7.2,0.6395296715545251
7.314285714285714,0.6494712606106126
7.428571428571428,0.6598635683724052
7.542857142857143,0.6706475998723163
7.657142857142857,0.6817655927970003
7.771428571428571,0.6931558540519731
7.885714285714285,0.7047467328979742
8.0,0.7164503408008664
8.114285714285714,0.7281567237738197
8.228571428571428,0.739729227172989
8.342857142857143,0.7510017526343781
8.457142857142857,0.7617784846306207
8.571428571428571,0.7718364607928481
8.685714285714285,0.7809310872760502
8.799999999999999,0.7888043818151996
8.914285714285715,0.7951953981079456
9.028571428571428,0.799851989615694
9.142857142857142,0.8025428552636416
9.257142857142856,0.8030687150054733
9.371428571428572,0.8012715170341507
9.485714285714286,0.7970407864259703
9.6,0.7903165674160605
9.714285714285714,0.7810888433533687
9.828571428571427,0.7693937753378411
9.942857142857143,0.7553075094364963
10.057142857142857,0.7389385946027348
10.17142857142857,0.7204201784270607
10.285714285714285,0.6999030836889177
10.4,0.6775506271697512
10.514285714285714,0.6535356672137698
10.628571428571428,0.6280399257554324
10.742857142857142,0.6012552022445001
10.857142857142858,0.5733857547723946
10.971428571428572,0.544650922935589
11.085714285714285,0.5152870346344187
11.2,0.48554777053636
11.314285714285713,0.45570242217310897
11.428571428571429,0.42603181933940903
11.542857142857143,0.39682205801473
11.657142857142857,0.3683564736944292
11.77142857142857,0.34090653299455054
11.885714285714286,0.31472243490935853
12.0,0.2900242197302352
12.114285714285714,0.26699409425843157
12.228571428571428,0.2457705246167924
12.342857142857142,0.2264444554945658
12.457142857142857,0.20905781768342807
12.571428571428571,0.1936043077156313
12.685714285714285,0.1800322781017269
12.799999999999999,0.16824946845890063
12.914285714285715,0.1581292338919071
13.028571428571428,0.14951788061980725
13.142857142857142,0.14224269280846422
13.257142857142856,0.13612022373396498
13.371428571428572,0.1309644270139192
13.485714285714286,0.12659422121968553
13.6,0.12284011722358086
13.714285714285714,0.11954959565834905
13.828571428571427,0.11659100335642725
13.942857142857143,0.1138558404725005
14.057142857142857,0.11125942775321146
14.17142857142857,0.10874006574752937
14.285714285714285,0.1062569117221226
14.4,0.10378689223175178
14.514285714285714,0.10132102812820022
14.628571428571428,0.09886056671813562
14.742857142857142,0.09641329076270502
14.857142857142856,0.09399031007045641
14.971428571428572,0.09160354811164578
15.085714285714285,0.08926402691661675
15.2,0.08698094384091519
15.314285714285713,0.084761438218594
15.428571428571429,0.08261087613986597
15.542857142857143,0.08053344458754107
15.657142857142857,0.0785328435188711
15.77142857142857,0.07661289250461864
15.885714285714284,0.07477791935892832
16.0,0.0730328614010786
16.114285714285714,0.07138307454911513
16.228571428571428,0.0698339014915973
16.34285714285714,0.06839009039848529
16.457142857142856,0.06705517601623538
16.57142857142857,0.06583093499605948
16.685714285714287,0.06471700940040664
16.8,0.06371076120148407
16.914285714285715,0.06280738212547272
17.02857142857143,0.06200024355076854
17.142857142857142,0.061281435913687475
17.257142857142856,0.06064242063683191
17.37142857142857,0.06007470291090777
17.485714285714284,0.05957043204610654
17.599999999999998,0.059122847283125675
17.714285714285715,0.05872650917446918
17.82857142857143,0.05837728693424407
17.942857142857143,0.05807210659721897
18.057142857142857,0.05780849897223454
18.17142857142857,0.05758401570092464
18.285714285714285,0.05739560218627802
18.4,0.05723902468988812
18.514285714285712,0.057108443944277665
18.628571428571426,0.056996209417794194
18.742857142857144,0.056892919021428984
18.857142857142858,0.05678775237640089
18.97142857142857,0.0566690468212802
19.085714285714285,0.056525049725134266
19.2,0.056344753707329304
19.314285714285713,0.05611870725654791
19.428571428571427,0.05583969439809547
19.54285714285714,0.05550319363849286
19.657142857142855,0.05510755622751137
19.771428571428572,0.054653882547630865
19.885714285714286,0.054145617432900875
20.0,0.053587924107761586
20.114285714285714,0.05298692630470294
20.228571428571428,0.0523489244183505
20.34285714285714,0.0516796918573871
20.457142857142856,0.05098394218326173
20.57142857142857,0.05026502883914348
20.685714285714287,0.04952490205210805
20.8,0.04876430793220968
20.914285714285715,0.04798317927604197
21.02857142857143,0.04718114168844391
21.142857142857142,0.046358046187320465
21.257142857142856,0.045514441879496256
21.37142857142857,0.044651918411720795
21.485714285714284,0.04377327419543106
21.599999999999998,0.042882497723569335
21.714285714285715,0.04198457984969529
21.82857142857143,0.041085199357590654
21.942857142857143,0.04019033865204903
22.057142857142857,0.03930588924177958
22.17142857142857,0.038437298554399195
22.285714285714285,0.0375892933573181
22.4,0.03676569494462918
22.514285714285712,0.0359693220452666
22.628571428571426,0.03520196327830928
22.742857142857144,0.034464394603798854
22.857142857142858,0.03375641923418294
22.97142857142857,0.0330769164226165
23.085714285714285,0.03242389828581347
23.2,0.031794586325493396
23.314285714285713,0.031185527674114855
23.428571428571427,0.03059277247084683
23.54285714285714,0.030012127102604192
23.657142857142855,0.02943948429057356
23.771428571428572,0.028871212962863962
23.885714285714286,0.028304572523714207
24.0,0.02773810179762671
24.114285714285714,0.027171926212210765
24.228571428571428,0.026607929833180038
24.34285714285714,0.026049751883172254
24.457142857142856,0.02550258857955464
24.57142857142857,0.024972807116238206
24.685714285714283,0.02446740506639246
24.8,0.02399337099432373
24.914285714285715,0.02355701697608919
25.02857142857143,0.02316335875492174
25.142857142857142,0.022815613822032895
25.257142857142856,0.02251487294067456
25.37142857142857,0.022259979037360312
25.485714285714284,0.022047622347877955
25.599999999999998,0.021872635845455787
25.71428571428571,0.021728453555770553
25.82857142857143,0.021607678818958056
25.942857142857143,0.02150270124407645
26.057142857142857,0.021406300228207064
26.17142857142857,0.02131217869487086
26.285714285714285,0.021215381642862303
26.4,0.021112568315672785
26.514285714285712,0.02100212240033362
26.628571428571426,0.020884099975666207
26.742857142857144,0.020760028683039274
26.857142857142858,0.020632582958529794
26.97142857142857,0.020505168703423435
27.085714285714285,0.020381456316938537
27.2,0.020264903560855085
27.314285714285713,0.02015830931984744
27.428571428571427,0.020063436037154863
27.54285714285714,0.019980732567932626
27.657142857142855,0.019909180653840855
27.771428571428572,0.01984627764787976
27.885714285714286,0.019788156247976287
28.0,0.01972982984306851
28.114285714285714,0.019665540837800963
28.228571428571428,0.01958918023607467
28.34285714285714,0.019494740896091142
28.457142857142856,0.019376764917849384
28.57142857142857,0.01923074776770457
28.685714285714283,0.01905346758787958
28.8,0.018843216767303134
28.914285714285715,0.01859992299325545
29.02857142857143,0.01832515726978654
29.142857142857142,0.018022035522787177
29.257142857142856,0.017695027510776094
29.37142857142857,0.017349691408131935
29.485714285714284,0.016992354708945723
29.599999999999998,0.01662976250425758
29.71428571428571,0.016268713421799714
29.82857142857143,0.015915702291155732
29.942857142857143,0.015576587408338533
30.057142857142857,0.015256299284804856
30.17142857142857,0.014958606774548935
30.285714285714285,0.01468595499447452
30.4,0.014439386891510017
30.514285714285712,0.014218556171726788
30.628571428571426,0.014021833403956503
30.74285714285714,0.01384649969518797
30.857142857142858,0.013689014128747495
30.97142857142857,0.013545333258702977
31.085714285714285,0.013411254647223494
31.2,0.013282752920270287
31.314285714285713,0.013156276961519914
31.428571428571427,0.013028980970055361
31.54285714285714,0.012898869818159008
31.657142857142855,0.012764849471184744
31.77142857142857,0.012626684705092608
31.885714285714286,0.012484877292353104
32.0,0.012340486620737705
32.114285714285714,0.012194920128662332
32.22857142857143,0.012049722331599982
32.34285714285714,0.011906388596608471
32.457142857142856,0.011766223853052897
32.57142857142857,0.011630258247392734
32.68571428571428,0.011499222750052121
32.8,0.011373579286676098
32.91428571428571,0.011253593237849076
33.028571428571425,0.011139431870210926
33.14285714285714,0.01103127069426335
33.25714285714285,0.010929390709531682
33.371428571428574,0.010834252472803611
33.48571428571429,0.010746537193252156
33.6,0.010667149867286944
33.714285714285715,0.01059718416071967
33.82857142857143,0.010537852851811351
33.94285714285714,0.010490390898749584
34.05714285714286,0.01045594050408543
34.17142857142857,0.010435428953847897
34.285714285714285,0.010429450597945013
34.4,0.010438164187037306
34.51428571428571,0.010461215919482944
34.628571428571426,0.010497696964827372
34.74285714285714,0.010546141889340157
34.857142857142854,0.010604571325433208
34.97142857142857,0.010670578505992376
35.08571428571428,0.01074145516488452
35.199999999999996,0.010814348163813284
35.31428571428572,0.010886434528224052
35.42857142857143,0.010955099884986764
35.542857142857144,0.011018104062433448
35.65714285714286,0.011073718158497704
35.77142857142857,0.011120819793892959
35.885714285714286,0.011158937359142007
36.0,0.011188239383535714
36.114285714285714,0.011209471036650088
36.22857142857143,0.011223845443394906
36.34285714285714,0.011232902187969858
36.457142857142856,0.01123834847229546
36.57142857142857,0.011241899488366283
36.68571428571428,0.011245133565220514
36.8,0.011249374768368082
36.91428571428571,0.011255611335175747
37.028571428571425,0.011264453280089475
37.14285714285714,0.01127612743424013
37.25714285714285,0.01129050380046814
37.371428571428574,0.011307143984617258
37.48571428571429,0.011325360982614796
37.6,0.011344279890735127
37.714285714285715,0.011362891038684052
37.82857142857143,0.011380090262646022
37.94285714285714,0.011394704993757708
38.05714285714286,0.01140550887790884
38.17142857142857,0.011411231080461229
38.285714285714285,0.011410568649660304
38.4,0.011402210865311653
38.51428571428571,0.011384883179385664
38.628571428571426,0.011357415252690932
38.74285714285714,0.01131883310126441
38.857142857142854,0.01126847014678853
38.97142857142857,0.011206086852043246
39.08571428571428,0.011131984499048852
39.199999999999996,0.01104709632199611
39.31428571428571,0.010953039193534565
39.42857142857143,0.010852111597998856
39.542857142857144,0.010747228537772914
39.65714285714286,0.010641790765562044
39.77142857142857,0.010539493476223363
39.885714285714286,0.010444087315167135
40.0,0.010359111230410351
40.114285714285714,0.010287621398784488
40.22857142857143,0.010231942525119572
40.34285714285714,0.010193466905078472
40.457142857142856,0.010172522779704018
40.57142857142857,0.010168327068916107
40.68571428571428,0.010179029235789557
40.8,0.010201843717985763
40.91428571428571,0.010233259115245063
41.028571428571425,0.010269304212755133
41.14285714285714,0.010305844923861773
41.25714285714285,0.010338883113371257
41.371428571428574,0.010364828458627535
41.48571428571429,0.010380718068908695
41.6,0.0103843651345372
41.714285714285715,0.010374426627433899
41.82857142857143,0.010350389911785352
41.94285714285714,0.010312487749614418
42.05714285714286,0.010261559300272454
42.17142857142857,0.010198880204874444
42.285714285714285,0.010125986971895476
42.4,0.010044519383631838
42.51428571428571,0.009956099808415417
42.628571428571426,0.009862260914675864
42.74285714285714,0.009764424506446979
42.857142857142854,0.009663925403124211
42.97142857142857,0.009562066824757433
43.08571428571428,0.009460188751874328
43.199999999999996,0.009359728944739165
43.31428571428571,0.00926225796471198
43.42857142857143,0.009169474336790303
43.542857142857144,0.00908315313804823
43.65714285714286,0.009005049640179456
43.77142857142857,0.008936767841134194
43.885714285714286,0.008879610480093893
44.0,0.008834431358875874
44.114285714285714,0.008801511807152178
44.22857142857143,0.008780480753209278
44.34285714285714,0.008770292460164822
44.457142857142856,0.00876926840568831
44.57142857142857,0.00877520121223098
44.68571428571428,0.008785510312695727
44.8,0.008797432424278455
44.91428571428571,0.008808225872519577
45.028571428571425,0.008815366880901194
45.14285714285714,0.008816718114841554
45.25714285714285,0.008810654533963007
45.37142857142857,0.008796138064442032
45.48571428571429,0.00877273965022964
45.6,0.008740613783674333
45.714285714285715,0.0087004357671234
45.82857142857143,0.008653315182697201
45.94285714285714,0.008600700220635025
46.05714285714286,0.008544286882743543
46.17142857142857,0.008485945141018608
46.285714285714285,0.008427671496802742
46.4,0.0083715745924899
46.51428571428571,0.008319897919802038
46.628571428571426,0.00827508132519006
46.74285714285714,0.00823986075225988
46.857142857142854,0.008217403112350398
46.97142857142857,0.00821146989792991
47.08571428571428,0.008226598785937643
47.199999999999996,0.008268286876486551
47.31428571428571,0.008343152576487179
47.42857142857143,0.008459046095586965
47.542857142857144,0.008625072160348059
47.65714285714286,0.008851484378418921
47.77142857142857,0.00914941049361095
47.885714285714286,0.009530373412635372
48.0,0.010005585903431176
48.114285714285714,0.010585018074634241
48.22857142857143,0.011276265752970924
48.34285714285714,0.0120832826913167
48.457142857142856,0.01300507639166346
48.57142857142857,0.014034500801426219
48.68571428571428,0.01515730275036439
48.8,0.01635158616443536
48.91428571428571,0.017587843463865528
49.028571428571425,0.0188296643746242
49.14285714285714,0.020035169679801644
49.25714285714285,0.02115913662499967
49.37142857142857,0.022155693373715726
49.48571428571429,0.022981374749416156
49.6,0.02359826426991283
49.714285714285715,0.023976910586560513
49.82857142857143,0.024098708448597503
49.94285714285714,0.023957477976970065
50.05714285714286,0.023560057344472286
50.17142857142857,0.02292583248121627
50.285714285714285,0.02208524790690755
50.4,0.02107745778769491
50.51428571428571,0.019947369259353618
50.628571428571426,0.018742388165236958
50.74285714285714,0.01750919374969734
50.857142857142854,0.016290843495506965
50.97142857142857,0.015124448627605503
51.08571428571428,0.014039576160737395
51.199999999999996,0.013057438659350239
51.31428571428571,0.01219084202827025
51.42857142857142,0.011444786311708654
51.542857142857144,0.010817562430344214
51.65714285714286,0.010302162263884543
51.77142857142857,0.009887819382918713
51.885714285714286,0.009561518527985969
52.0,0.009309347027507993
52.114285714285714,0.009117603487717145
52.22857142857143,0.008973621603129108
52.34285714285714,0.00886630458959751
52.457142857142856,0.008786395158453924
52.57142857142857,0.008726525636345397
52.68571428571428,0.008681102902552225
52.8,0.008646084536616803
52.91428571428571,0.008618697892446533
53.028571428571425,0.008597144928950542
53.14285714285714,0.008580324625845176
53.25714285714285,0.008567593478412707
53.37142857142857,0.008558574252373947
53.48571428571429,0.008553014784606986
53.6,0.008550692591318784
53.714285714285715,0.008551357459770375
53.82857142857143,0.008554702809589622
53.94285714285714,0.008560356951934543
54.05714285714286,0.008567886865387175
54.17142857142857,0.008576809141473176
54.285714285714285,0.008586604794256016
54.4,0.008596736280176584
54.51428571428571,0.008606666116346778
54.628571428571426,0.008615876879793373
54.74285714285714,0.008623892231888303
54.857142857142854,0.00863029815698068
54.97142857142857,0.00863476308363948
55.08571428571428,0.00863705519634982
