Frequency,PSD
6.0,0.5314336154993917
6.08,0.5300671995049051
6.16,0.5273888736682829
6.24,0.5235008845846666
6.32,0.5185419258196047
6.4,0.5126749924366448
6.48,0.50607814929936
6.5600000000000005,0.4989406165156032
6.640000000000001,0.49146416926445885
6.72,0.4838672302275363
6.8,0.47638720163929804
6.88,0.46927635901447134
6.96,0.46278831170110807
7.04,0.4571552319221129
7.12,0.45255974447828146
7.2,0.4491082362299893
7.28,0.4468132479166881
7.36,0.4455910325097063
7.44,0.4452766382709606
7.5200000000000005,0.44565410339212624
7.6000000000000005,0.4464950290601736
7.68,0.4475962991691446
7.76,0.4488078147439819
7.84,0.45004375347000136
7.92,0.4512752227369621
8.0,0.4525069692585331
8.08,0.45374474388104274
8.16,0.45496206886566926
8.24,0.45607516411951665
8.32,0.45693287131510885
8.4,0.45732517220793023
8.48,0.45701008187538905
8.56,0.4557550152928276
8.64,0.45338573859881165
8.72,0.4498341331973923
8.8,0.44517550216009527
8.88,0.4396471876038011
8.96,0.433642822960888
9.040000000000001,0.4276803477321622
9.120000000000001,0.4223464162467224
9.200000000000001,0.41822425929537077
9.28,0.41581555042855434
9.36,0.41546864936944233
9.44,0.41732530737053253
9.52,0.42129548846949205
9.6,0.4270657457568194
9.68,0.43414125605245607
9.76,0.4419159999794269
9.84,0.4497605724562891
9.92,0.4571135673545402
10.0,0.46356109924013505
10.08,0.4688902490164481
10.16,0.47310611741288566
10.24,0.47640833054797277
10.32,0.4791303409860035
10.4,0.481652347760935
10.48,0.48430454721600924
10.56,0.4872802733855111
10.64,0.49057745069570086
10.72,0.49398155793331855
10.8,0.4970948756515837
10.88,0.4994069277995917
10.96,0.5003920017577422
11.040000000000001,0.4996136305728111
11.120000000000001,0.49681444867523344
11.200000000000001,0.49197325349352183
11.28,0.48531852799806274
11.36,0.47729720634837497
11.44,0.46850674102173645
11.52,0.4596053971164288
11.6,0.45121875287291696
11.68,0.44385927086219357
11.76,0.43787120608867414
11.84,0.43340648211986454
11.92,0.4304302740461864
12.0,0.42874954061340814
12.08,0.4280547855365614
12.16,0.42796527970739046
12.24,0.4280704094556062
12.32,0.4279636393408459
12.4,0.4272693745968592
12.48,0.4256654769784918
12.56,0.4229045614430933
12.64,0.41883550500425426
12.72,0.41342364380424684
12.8,0.4067652295406731
12.88,0.3990901950253798
12.96,0.3907480027298422
13.040000000000001,0.38217437963552786
13.120000000000001,0.37384129195524873
13.200000000000001,0.3661972142907439
13.280000000000001,0.3596081055411265
13.36,0.3543103951043081
13.44,0.35038531294701236
13.52,0.34775951201685706
13.6,0.3462312673248691
13.68,0.3455160723714315
13.76,0.34530158702727903
13.84,0.3453005527081374
13.92,0.3452917068182061
14.0,0.34514237961243543
14.08,0.3448112435962814
14.16,0.3443342568103947
14.24,0.3437999929745806
14.32,0.3433215818830559
14.4,0.34301138870611414
14.48,0.3429620012564556
14.56,0.3432341384012261
14.64,0.343849826859972
14.72,0.34478833714317064
14.8,0.3459830379210582
14.88,0.3473190277853778
14.96,0.3486332523218604
15.040000000000001,0.34971990058221186
15.120000000000001,0.3503436115124924
15.200000000000001,0.35026136690807125
15.280000000000001,0.3492514186687901
15.36,0.34714506985724364
15.44,0.34385551113323926
15.52,0.33939781883985676
15.6,0.3338957449445108
15.68,0.32757362579202576
15.76,0.32073478679908407
15.84,0.31373033190548094
15.92,0.3069235307395888
16.0,0.3006549564482575
16.080000000000002,0.2952123652511069
16.16,0.2908076471738936
16.240000000000002,0.2875616678268432
16.32,0.2854969010173119
16.4,0.2845374973012015
16.48,0.284516581698263
16.56,0.2851906942540348
16.64,0.2862610133296394
16.72,0.2874002158862915
16.8,0.2882827213211033
16.88,0.28861504475429356
16.96,0.2881624935970588
17.04,0.28676875366673926
17.12,0.284366017724251
17.2,0.2809749192620886
17.28,0.27669519870512077
17.36,0.27168931886843806
17.44,0.2661619052669705
17.52,0.26033789617415937
17.6,0.25444182679826427
17.68,0.24868000734170087
17.76,0.24322671432111592
17.84,0.23821501082256918
17.92,0.23373243432524368
18.0,0.2298214608860462
18.080000000000002,0.22648429754454363
18.16,0.22369115660753489
18.240000000000002,0.22139078346795926
18.32,0.21952174282042686
18.400000000000002,0.2180229069268147
18.48,0.21684177245720532
18.56,0.21593962876082465
18.64,0.2152931232221963
18.72,0.21489230841342824
18.8,0.2147357147713094
18.88,0.21482331527878068
18.96,0.2151484259646584
19.04,0.21568964422177653
19.12,0.21640390460211972
19.2,0.21722165591018577
19.28,0.21804503467948327
19.36,0.21874970312352693
19.44,0.21919069935960045
19.52,0.2192121955598583
19.6,0.2186604988648676
19.68,0.21739903739145416
19.76,0.21532357079170789
19.84,0.21237558604128437
19.92,0.20855188898065669
20.0,0.2039088163936068
20.080000000000002,0.198560220261435
20.16,0.19266928459312924
20.240000000000002,0.1864351491609909
20.32,0.18007605537668145
20.400000000000002,0.17381115979333434
20.48,0.16784321237828112
20.56,0.16234398370205624
20.64,0.15744373849937288
20.72,0.1532253396023562
20.8,0.14972289286300317
20.88,0.1469243510516196
20.96,0.14477725330911848
21.04,0.14319676256260466
21.12,0.1420752691900663
21.2,0.1412929140058027
21.28,0.14072834265695525
21.36,0.1402688280081091
21.44,0.1398186904164027
21.52,0.13930488205698138
21.6,0.13867884039617223
21.68,0.13791431238551005
21.76,0.1370017034960067
21.84,0.13594037300611278
21.92,0.13473088035856454
22.0,0.1333692472168069
22.080000000000002,0.13184475707110124
22.16,0.13014179491735353
22.240000000000002,0.12824503226395303
22.32,0.1261462602605728
22.400000000000002,0.12385068479418279
22.48,0.12138067563038205
22.56,0.11877574224737543
22.64,0.11608863191033686
22.72,0.11337854722575404
22.8,0.11070322023329984
22.88,0.10811175509915914
22.96,0.10563975794361191
23.04,0.10330749285902766
23.12,0.10112092755946706
23.2,0.09907484578799586
23.28,0.09715688838238014
23.36,0.09535146875603419
23.44,0.09364287870680948
23.52,0.09201736686469
23.6,0.0904643499970729
23.68,0.08897709436805289
23.76,0.08755316832268925
23.84,0.08619479155490904
23.92,0.08490900511865247
24.0,0.08370746169220761
24.080000000000002,0.08260564035239351
24.16,0.0816214135271686
24.240000000000002,0.08077307545042972
24.32,0.0800771017708779
24.400000000000002,0.0795459844256146
24.48,0.07918644938557444
24.560000000000002,0.07899823823679582
24.64,0.07897347238729514
24.72,0.0790964851965037
24.8,0.07934395073468144
24.88,0.0796851735324241
24.96,0.08008251131709584
25.04,0.08049203703372113
25.12,0.08086465475379082
25.2,0.08114792351627073
25.28,0.08128879133165236
25.36,0.08123729911853185
25.44,0.08095110137932833
25.52,0.08040040135529129
25.6,0.07957265808472523
25.68,0.07847624460852111
25.76,0.07714217935696843
25.84,0.07562317180120048
25.92,0.07398955265566609
26.0,0.07232218666739489
26.080000000000002,0.07070311467379653
26.16,0.06920529488551522
26.240000000000002,0.06788322360595417
26.32,0.06676624133890711
26.400000000000002,0.06585588774816634
26.48,0.06512781811543923
26.560000000000002,0.06453774696058326
26.64,0.06402995122165775
26.72,0.06354634740405708
26.8,0.06303422943669086
26.88,0.06245138639028684
26.96,0.06176827662464186
27.04,0.060967863491972835
27.12,0.06004428386627594
27.2,0.059001544287717006
27.28,0.05785296274082966
27.36,0.05662133745247703
27.44,0.05533916028265335
27.52,0.0540478866848246
27.6,0.05279545188596601
27.68,0.05163180726980208
27.76,0.050603005765848745
27.84,0.04974499624665196
27.92,0.04907855793340277
28.0,0.048606620682273116
28.080000000000002,0.048314643486602395
28.16,0.04817395471476629
28.240000000000002,0.04814723475024188
28.32,0.048194850853099346
28.400000000000002,0.048280646408273634
28.48,0.048376038345705835
28.560000000000002,0.048461786416391844
28.64,0.04852741061916053
28.72,0.048568786948523616
28.8,0.04858481945221291
28.88,0.048574199091926944
28.96,0.048533113395276516
29.04,0.04845442145765959
29.12,0.048328356663853704
29.2,0.048144385474674686
29.28,0.047893548068057915
29.36,0.04757051249923927
29.44,0.04717470725610448
29.52,0.04671021160567248
29.6,0.04618448047056364
29.68,0.04560633952784489
29.76,0.04498390067117572
29.84,0.04432305966634253
29.92,0.0436270523520709
30.0,0.042897226576360525
30.080000000000002,0.04213483131064687
30.16,0.04134333065069259
30.240000000000002,0.04053059115339353
30.32,0.039710297799916944
30.400000000000002,0.03890211736694258
30.48,0.03813040706786083
30.560000000000002,0.037421600564942356
30.64,0.03680072350010243
30.72,0.03628772693199338
30.8,0.03589441961397404
30.88,0.03562269231516318
30.96,0.035464461123661965
31.04,0.035403361621998516
31.12,0.03541779598341266
31.2,0.035484587567963466
31.28,0.03558233839503312
31.36,0.0356936722211405
31.44,0.03580586657436613
31.52,0.03590984508672215
31.6,0.03599798206898651
31.68,0.03606152183112341
31.76,0.036088529503254155
31.84,0.03606313130965845
31.92,0.03596641491449574
32.0,0.035778857675203286
32.08,0.03548368096669512
32.160000000000004,0.035070232343021215
32.24,0.0345364637995796
32.32,0.03388981484499734
32.4,0.03314625127125881
32.480000000000004,0.0323277202909824
32.56,0.03145870596864191
32.64,0.03056278086846391
32.72,0.0296599951815032
32.8,0.02876565338135408
32.88,0.02789060274370937
32.96,0.02704273410066373
33.04,0.026229096355728124
33.12,0.025457924554155523
33.2,0.024739980707149292
33.28,0.024088851862219367
33.36,0.023520153640190153
33.44,0.02304986234552788
33.52,0.02269218279826262
33.6,0.02245742633240205
33.68,0.022350331056226067
33.76,0.022369133126393145
33.84,0.022505530741842375
33.92,0.022745508105096256
34.0,0.023070834957953097
34.08,0.02346095088588945
34.160000000000004,0.023894896476478515
34.24,0.024352970742375735
34.32,0.024817871308826307
34.4,0.02527519585383791
34.480000000000004,0.02571332614569592
34.56,0.02612284975215981
34.64,0.02649576870420428
34.72,0.0268247755587109
34.800000000000004,0.02710283600933425
34.88,0.02732321282154383
34.96,0.027479926173120173
35.04,0.02756850996602779
35.12,0.02758683200527972
35.2,0.027535725112059085
35.28,0.0274192312827986
35.36,0.027244373016376035
35.44,0.027020498414227455
35.52,0.02675835788967175
35.6,0.026469127118917454
35.68,0.02616357887942639
35.76,0.025851533723853536
35.84,0.025541612778902066
35.92,0.02524121151728853
36.0,0.02495654522957297
36.08,0.02469260684990628
36.160000000000004,0.02445292882463838
36.24,0.024239136533055768
36.32,0.02405039068461505
36.4,0.02388290440877709
36.480000000000004,0.02372975761176545
36.56,0.023581201805354803
36.64,0.02342555752622804
36.72,0.023250675579521526
36.800000000000004,0.02304579484267138
36.88,0.022803516203056443
36.96,0.022521549735737702
37.04,0.022203893569625086
37.12,0.02186116844225834
37.2,0.021509951713288594
37.28,0.02117111115288904
37.36,0.02086730934081774
37.44,0.020620007146454476
37.52,0.02044641050031426
37.6,0.02035685139810983
37.68,0.020353053116743576
37.76,0.02042759817359473
37.84,0.020564713965766042
37.92,0.020742254489450936
38.0,0.02093453962965959
38.08,0.021115568542296195
38.160000000000004,0.021262086959205204
38.24,0.021356067903837365
38.32,0.02138633714002621
38.4,0.02134928863002236
38.480000000000004,0.02124883026014375
38.56,0.02109582231209618
38.64,0.0209072897634756
38.72,0.02070560473143593
38.800000000000004,0.020517677517316882
38.88,0.020374015419822523
38.96,0.020307367909264212
39.04,0.020350629883864484
39.12,0.02053375888752628
39.2,0.02087968623784954
39.28,0.021399537976851186
39.36,0.022087860736964483
39.44,0.022918866082272955
39.52,0.023844844661018195
39.6,0.024797756377281238
39.68,0.025694532036186463
39.76,0.026445877163422976
39.84,0.02696750558063161
39.92,0.027191979866834134
40.0,0.027078938757871016
40.08,0.026621614482366596
40.160000000000004,0.025848208752589134
40.24,0.0248177588885766
40.32,0.02361130741618481
40.4,0.022320166890835803
40.480000000000004,0.021033586098604642
40.56,0.019828059901112225
40.64,0.018759944851258252
40.72,0.017862151664551303
40.800000000000004,0.01714475342057901
40.88,0.016598617704460614
40.96,0.016200787818042302
41.04,0.015920325143766206
41.12,0.015723598060687974
41.2,0.015578419957663382
41.28,0.015456853630724235
41.36,0.015336805362885448
41.44,0.015202683983984002
41.52,0.015045411605286744
41.6,0.01486199615034614
41.68,0.014654776348830764
41.76,0.014430380601386144
41.84,0.014198427849607459
41.92,0.01397003667486978
42.0,0.01375627119019297
42.08,0.013566703824363308
42.160000000000004,0.013408287949083523
42.24,0.013284696886066089
42.32,0.013196208845541587
42.4,0.01314012193340216
42.480000000000004,0.01311159490663751
42.56,0.013104746774319715
42.64,0.013113818991394568
42.72,0.013134204766066387
42.800000000000004,0.013163173071328652
42.88,0.01320015442123304
42.96,0.013246510909125445
43.04,0.013304787636671074
43.12,0.01337753706845188
43.2,0.013465912734274025
43.28,0.013568321454210082
43.36,0.013679471645264528
43.44,0.013790128392252715
43.52,0.013887768770977109
43.6,0.013958135896010521
43.68,0.01398746014296513
43.76,0.013964914764596058
43.84,0.013884765836422175
43.92,0.013747706306495577
44.0,0.0135610340716248
44.08,0.013337602782945313
44.160000000000004,0.013093766335497631
44.24,0.012846769387931589
44.32,0.012612141777544857
44.4,0.012401610485009767
44.480000000000004,0.012221872922583447
44.56,0.012074341014300773
44.64,0.011955741629183139
44.72,0.011859306999946629
44.800000000000004,0.011776237633549609
44.88,0.011697160668109928
44.96,0.011613400929723957
45.04,0.011517982823951497
45.12,0.011406351496010218
45.2,0.011276826765894195
45.28,0.011130792321386983
45.36,0.010972599761482852
45.44,0.010809158154080241
45.52,0.010649200227447093
45.6,0.010502265339775493
45.68,0.010377501681112459
45.76,0.01028244351684934
45.84,0.010221943921457453
45.92,0.010197429504935516
46.0,0.010206593959032314
46.08,0.010243575258040262
46.160000000000004,0.01029958531983839
46.24,0.010363897396573982
46.32,0.010425055259263693
46.4,0.010472150932139684
46.480000000000004,0.010496019602484474
46.56,0.010490214668601614
46.64,0.01045164836193828
46.72,0.010380814254259468
46.800000000000004,0.010281550901593767
46.88,0.010160363772193431
46.96,0.010025392522630622
47.04,0.00988518088512096
47.12,0.009747457777509651
47.2,0.009618150402640078
47.28,0.009500810341303055
47.36,0.009396544413703143
47.44,0.009304423378411813
47.52,0.009222226116873998
47.6,0.009147299680444835
47.68,0.009077300904895991
47.76,0.00901063800389226
47.84,0.008946533620099902
47.92,0.008884751313442026
48.0,0.008825128073861599
48.08,0.008767107038205463
48.160000000000004,0.008709455270725633
48.24,0.008650289027046726
48.32,0.008587436444797121
48.4,0.008519074387700219
48.480000000000004,0.008444507589354831
48.56,0.008364928157731906
48.64,0.008284001557813843
48.72,0.008208159462081734
48.800000000000004,0.00814652339756256
48.88,0.008110421733973647
48.96,0.008112490869172087
49.04,0.008165374905293047
49.120000000000005,0.008280069903953292
49.2,0.008464012711650853
49.28,0.008719095443353881
49.36,0.00903988390895975
49.44,0.009412402228346434
49.52,0.009813875048376849
49.6,0.010213753389976994
49.68,0.010576170540271788
49.76,0.01086369657769563
49.84,0.011041940832525275
49.92,0.011084277634691424
50.0,0.010975833247795583
50.08,0.010715933725455344
50.160000000000004,0.010318481833287195
50.24,0.009810148582094103
50.32,0.009226723222207685
50.4,0.008608340272045455
50.480000000000004,0.00799449371924981
50.56,0.007419714697807197
50.64,0.006910555990447915
50.72,0.006484176057390588
50.800000000000004,0.006148452317971493
50.88,0.00590327164808036
50.96,0.005742500432566059
51.04,0.005656133807965804
51.120000000000005,0.005632230600125252
51.2,0.005658402632342371
51.28,0.005722790499398328
51.36,0.005814584016462449
51.44,0.005924217132881734
51.52,0.0060433856088354995
51.6,0.006165014093874746
51.68,0.006283254237511391
51.76,0.006393542761201892
51.84,0.006492700459938489
51.92,0.006579018914188222
52.0,0.006652267113010533
52.08,0.006713557538053682
52.160000000000004,0.0067650386605714935
52.24,0.006809421924937561
52.32,0.006849396220658982
52.4,0.0068870202242610505
52.480000000000004,0.006923202811973507
52.56,0.006957377866711424
52.64,0.006987451475232429
52.72,0.007010051561230648
52.800000000000004,0.007021051844595793
52.88,0.007016285794571465
52.96,0.006992324378057254
53.04,0.006947173902735102
53.120000000000005,0.006880762194876847
53.2,0.006795121188538189
53.28,0.006694233403240599
53.36,0.006583575375013711
53.44,0.006469447859152118
53.52,0.006358217956815358
53.6,0.006255605488355563
53.68,0.00616612559185424
53.76,0.006092758923164528
53.84,0.006036871162175515
53.92,0.0059983564450063614
54.0,0.005975943981614176
54.08,0.005967588464522789
54.160000000000004,0.005970863639161302
54.24,0.00598329200207022
54.32,0.006002567468307268
54.4,0.006026656608084003
54.480000000000004,0.006053792167931936
54.56,0.006082394892200009
54.64,0.0061109719075953155
54.72,0.006138039638718397
54.800000000000004,0.006162106525136461
54.88,0.006181728954849328
54.96,0.006195628775933251
55.04,0.006202839749275338
