Frequency,PSD
6.057142857142857,0.19275417870414385
6.171428571428571,0.1922180418377884
6.285714285714286,0.19169360688895165
6.3999999999999995,0.192003629206092
6.514285714285714,0.1938572084270061
6.628571428571428,0.1975633885295107
6.742857142857143,0.20299206090684072
6.857142857142857,0.20976990893922726
6.9714285714285715,0.21756113741910654
7.085714285714285,0.22625305699931614
7.2,0.2359545473690659
7.314285714285714,0.2468456819491227
7.428571428571428,0.2589934328515424
7.542857142857143,0.2722335293996686
7.657142857142857,0.28615326089617543
7.771428571428571,0.3001612923348312
7.885714285714285,0.31362379402014273
8.0,0.3260522633180069
8.114285714285714,0.3373104203026189
8.228571428571428,0.3477694756435771
8.342857142857143,0.3583268447045943
8.457142857142857,0.370251110459306
8.571428571428571,0.38491350382669703
8.685714285714285,0.4035481493283335
8.799999999999999,0.42717651092128445
8.914285714285715,0.45671747049006334
9.028571428571428,0.493151459988368
9.142857142857142,0.5375330493172068
9.257142857142856,0.5907277704522118
9.371428571428572,0.6529446297763681
9.485714285714286,0.7233007104797711
9.6,0.7996487517200677
9.714285714285714,0.8787121380940563
9.828571428571427,0.9563537616430491
9.942857142857143,1.027757106967224
10.057142857142857,1.0874944226147993
10.17142857142857,1.1297447440428645
10.285714285714285,1.1490151125621237
10.4,1.1414375700088586
10.514285714285714,1.10620586623168
10.628571428571428,1.0463803256502435
10.742857142857142,0.9684627130647115
10.857142857142858,0.8807786345994385
10.971428571428572,0.7913708407569051
11.085714285714285,0.7063285510282818
11.2,0.6291277789122862
11.314285714285713,0.5609366016532249
11.428571428571429,0.501397178575331
11.542857142857143,0.4493676710708661
11.657142857142857,0.4033835608035099
11.77142857142857,0.36189536768661523
11.885714285714286,0.32345516965638527
12.0,0.28695105252627257
12.114285714285714,0.2518502059460708
12.228571428571428,0.21833035413159163
12.342857142857142,0.1872006938124658
12.457142857142857,0.15960768392110639
12.571428571428571,0.1366238932513755
12.685714285714285,0.11887254187978981
12.799999999999999,0.1063224637467893
12.914285714285715,0.09831327275917268
13.028571428571428,0.09377834344667516
13.142857142857142,0.09156400992643099
13.257142857142856,0.09072053133300051
13.371428571428572,0.09066632820010853
13.485714285714286,0.0911866800465313
13.6,0.09229521206215145
13.714285714285714,0.09403405571967906
13.828571428571427,0.09630115214059055
13.942857142857143,0.0987724912610983
14.057142857142857,0.10094600178545467
14.17142857142857,0.1022868015762697
14.285714285714285,0.10241365603741283
14.4,0.10124725000566084
14.514285714285714,0.09905326066256112
14.628571428571428,0.09635668636379452
14.742857142857142,0.0937611264182883
14.857142857142856,0.09175026658414781
14.971428571428572,0.09055578255902388
15.085714285714285,0.09014088205592012
15.2,0.09028894570798304
15.314285714285713,0.09073547953224725
15.428571428571429,0.09126969149608202
15.542857142857143,0.09176569908217602
15.657142857142857,0.0921570451726223
15.77142857142857,0.09240288457071688
15.885714285714284,0.0924882135357179
16.0,0.09246426258146279
16.114285714285714,0.0924982110024746
16.228571428571428,0.09288761504154083
16.34285714285714,0.09400937906239709
16.457142857142856,0.09620575945984476
16.57142857142857,0.09964524164278432
16.685714285714287,0.10421837853714455
16.8,0.10952492009513663
16.914285714285715,0.1149748351460731
17.02857142857143,0.1199735981080482
17.142857142857142,0.12411701974041929
17.257142857142856,0.12730979172040383
17.37142857142857,0.12975472306830133
17.485714285714284,0.13181985370985264
17.599999999999998,0.13384442033324223
17.714285714285715,0.13596418562946908
17.82857142857143,0.13801875902958957
17.942857142857143,0.13956737462204846
18.057142857142857,0.1400065402166437
18.17142857142857,0.13875978345615975
18.285714285714285,0.13549087460310233
18.4,0.13027542686124394
18.514285714285712,0.12366253223158893
18.628571428571426,0.11658307102757977
18.742857142857144,0.11011574880101657
18.857142857142858,0.10518486349653705
18.97142857142857,0.10230251158587236
19.085714285714285,0.10145814396834228
19.2,0.10219923854619471
19.314285714285713,0.10386231516014137
19.428571428571427,0.10584269303348269
19.54285714285714,0.10777263650596518
19.657142857142855,0.1095285409234973
19.771428571428572,0.11108827085186325
19.885714285714286,0.1123522369511442
20.0,0.11306277696893702
20.114285714285714,0.11288446272167638
20.228571428571428,0.11158972589420584
20.34285714285714,0.10921623700009622
20.457142857142856,0.1060834089462083
20.57142857142857,0.10265629503906006
20.685714285714287,0.09934595451993838
20.8,0.09636370811123394
20.914285714285715,0.09369473428989811
21.02857142857143,0.09117605867650244
21.142857142857142,0.08861405628156402
21.257142857142856,0.0858775136212021
21.37142857142857,0.08293435889928885
21.485714285714284,0.0798334621605905
21.599999999999998,0.07665251887642868
21.714285714285715,0.07344019301537287
21.82857142857143,0.07017988419802373
21.942857142857143,0.06679364841440041
22.057142857142857,0.06318715210848533
22.17142857142857,0.05931537343669703
22.285714285714285,0.055235328570646544
22.4,0.05111586712945603
22.514285714285712,0.047195356674623046
22.628571428571426,0.04370487769970199
22.742857142857144,0.04079210235191887
22.857142857142858,0.038479374870106706
22.97142857142857,0.036670450537091774
23.085714285714285,0.03519623325094781
23.2,0.033875018112513665
23.314285714285713,0.03256357898341602
23.428571428571427,0.031186909022357653
23.54285714285714,0.029745884503300193
23.657142857142855,0.028306863500847015
23.771428571428572,0.026976878221427622
23.885714285714286,0.025868541352485477
24.0,0.025062817588351383
24.114285714285714,0.02458194946519041
24.228571428571428,0.02438327483408179
24.34285714285714,0.024375764487617673
24.457142857142856,0.02444992350409169
24.57142857142857,0.024506246495212776
24.685714285714283,0.024471644932251155
24.8,0.02430326337385285
24.914285714285715,0.02398637500461691
25.02857142857143,0.02353227689259277
25.142857142857142,0.022976017040739448
25.257142857142856,0.02237002862307198
25.37142857142857,0.021772710974809917
25.485714285714284,0.021237064649696682
25.599999999999998,0.020805965889470784
25.71428571428571,0.020514469192340873
25.82857142857143,0.020391340721906074
25.942857142857143,0.02045107040108367
26.057142857142857,0.020676922738002528
26.17142857142857,0.021007741041128014
26.285714285714285,0.021344353165859833
26.4,0.021580301024675036
26.514285714285712,0.02164338428413847
26.628571428571426,0.02152360279884113
26.742857142857144,0.021269405890627806
26.857142857142858,0.020954521306538694
26.97142857142857,0.020637537670793838
27.085714285714285,0.02034086471796938
27.2,0.020060821701133706
27.314285714285713,0.01979708010701777
27.428571428571427,0.01957509529265202
27.54285714285714,0.01944073550345507
27.657142857142855,0.01942813192213791
27.771428571428572,0.019523466216405574
27.885714285714286,0.01965261017807147
28.0,0.019705326440891433
28.114285714285714,0.019584364856035555
28.228571428571428,0.01925164186839546
28.34285714285714,0.01874620440957606
28.457142857142856,0.018166470874547327
28.57142857142857,0.01762915519154484
28.685714285714283,0.01722693997230873
28.8,0.017002920621147343
28.914285714285715,0.016947759618254843
29.02857142857143,0.017014114987403326
29.142857142857142,0.017137818388804734
29.257142857142856,0.017256734280985175
29.37142857142857,0.01732294108838217
29.485714285714284,0.01730807783265635
29.599999999999998,0.017203453309544613
29.71428571428571,0.017016332892804666
29.82857142857143,0.016763537767953446
29.942857142857143,0.016464213847701845
30.057142857142857,0.016134561153645605
30.17142857142857,0.01578676704410039
30.285714285714285,0.015431901459706627
30.4,0.015083779824484733
30.514285714285712,0.01476015612498242
30.628571428571426,0.014479852882940724
30.74285714285714,0.014257846752578135
30.857142857142858,0.014102050492843143
30.97142857142857,0.014013995483076188
31.085714285714285,0.013991991695939343
31.2,0.014032740925815048
31.314285714285713,0.014128358780303427
31.428571428571427,0.014260026802840137
31.54285714285714,0.014393756316375829
31.657142857142855,0.0144840838767477
31.77142857142857,0.014486713756683813
31.885714285714286,0.014374283471102695
32.0,0.014146074324768184
32.114285714285714,0.013825948323044205
32.22857142857143,0.013450736430102963
32.34285714285714,0.013057207526531984
32.457142857142856,0.01267471854402873
32.57142857142857,0.012324159556546734
32.68571428571428,0.01201831773787493
32.8,0.01175935077936797
32.91428571428571,0.011534505119493665
33.028571428571425,0.011315657543917744
33.14285714285714,0.011067093884210932
33.25714285714285,0.01076005005711502
33.371428571428574,0.01038702853488272
33.48571428571429,0.009968244411792863
33.6,0.009546973104733009
33.714285714285715,0.009176465921685686
33.82857142857143,0.008904470894407051
33.94285714285714,0.00876093039308456
34.05714285714286,0.008751754579181686
34.17142857142857,0.008859051468256732
34.285714285714285,0.009046758917369842
34.4,0.009269704005062586
34.51428571428571,0.009483234738176128
34.628571428571426,0.009650374562872738
34.74285714285714,0.009744863977124704
34.857142857142854,0.009751040784689826
34.97142857142857,0.009663272041999318
35.08571428571428,0.009486878929225163
35.199999999999996,0.009239781540179919
35.31428571428572,0.008952067201225872
35.42857142857143,0.008661487048978157
35.542857142857144,0.008405948801688809
35.65714285714286,0.008216651882915298
35.77142857142857,0.008115301224888863
35.885714285714286,0.00811597827081115
36.0,0.008228938530248713
36.114285714285714,0.008462161844238926
36.22857142857143,0.008817816861293565
36.34285714285714,0.009284190828931537
36.457142857142856,0.009827277673184183
36.57142857142857,0.010387979560342903
36.68571428571428,0.01088926411525838
36.8,0.01125291272411597
36.91428571428571,0.011420178080430115
37.028571428571425,0.011368131578113727
37.14285714285714,0.011115504011816907
37.25714285714285,0.010716997531974718
37.371428571428574,0.010249836191163557
37.48571428571429,0.009797942898878318
37.6,0.009437577898888824
37.714285714285715,0.00922577436785963
37.82857142857143,0.009191666216473639
37.94285714285714,0.00933128708761173
38.05714285714286,0.009607428272192825
38.17142857142857,0.009956149031272354
38.285714285714285,0.010299951520120497
38.4,0.010565168399770833
38.51428571428571,0.010699158352510134
38.628571428571426,0.01068255318829418
38.74285714285714,0.01053316415836396
38.857142857142854,0.010300488560726379
38.97142857142857,0.01005217497566824
39.08571428571428,0.009855845211805693
39.199999999999996,0.009761140345234566
39.31428571428571,0.009787301358407455
39.42857142857143,0.009920284011292416
39.542857142857144,0.010120143361556791
39.65714285714286,0.010335328202429389
39.77142857142857,0.010517781163147345
39.885714285714286,0.01063317657640406
40.0,0.010664193970802332
40.114285714285714,0.010609126012090268
40.22857142857143,0.010480188974905665
40.34285714285714,0.010303991766091628
40.457142857142856,0.010122217294229834
40.57142857142857,0.009987526985067396
40.68571428571428,0.009951212755655093
40.8,0.010044852147661341
40.91428571428571,0.010264154365162799
41.028571428571425,0.010564569971971971
41.14285714285714,0.010873285822832313
41.25714285714285,0.01111360133958345
41.371428571428574,0.011230718912418457
41.48571428571429,0.011207070834038388
41.6,0.011061031612868267
41.714285714285715,0.010831744406638494
41.82857142857143,0.010559569987197896
41.94285714285714,0.010272555814514367
42.05714285714286,0.009984210582258669
42.17142857142857,0.009700316283213956
42.285714285714285,0.009427485288135928
42.4,0.009176754589402885
42.51428571428571,0.008960701731833448
42.628571428571426,0.008788022771255507
42.74285714285714,0.008660970114565757
42.857142857142854,0.008577757415524894
42.97142857142857,0.008537217756246888
43.08571428571428,0.008540913425634844
43.199999999999996,0.008590207538187069
43.31428571428571,0.008680392774449779
43.42857142857143,0.008796926272752444
43.542857142857144,0.008917701477143509
43.65714285714286,0.009020929585780234
43.77142857142857,0.00909391518819859
43.885714285714286,0.009137019228009389
44.0,0.009160162104196987
44.114285714285714,0.009174096250581824
44.22857142857143,0.009181867248722761
44.34285714285714,0.009175277048789569
44.457142857142856,0.009137571099371604
44.57142857142857,0.009049878913077906
44.68571428571428,0.008897667935792993
44.8,0.00867488170234333
44.91428571428571,0.008385722575236244
45.028571428571425,0.008045217622592995
45.14285714285714,0.007679241290482494
45.25714285714285,0.007323511260305711
45.37142857142857,0.007020458767664526
45.48571428571429,0.0068133092091504635
45.6,0.006737902742976011
45.714285714285715,0.006814093928154675
45.82857142857143,0.0070393309364317124
45.94285714285714,0.007386755770633491
46.05714285714286,0.007808887600895825
46.17142857142857,0.008246242942708119
46.285714285714285,0.0086388943035372
46.4,0.008938329862221471
46.51428571428571,0.009116871034960988
46.628571428571426,0.009172177599681575
46.74285714285714,0.009125322179603065
46.857142857142854,0.009012864179191716
46.97142857142857,0.008875752731394309
47.08571428571428,0.008749246659522342
47.199999999999996,0.008657112653512598
47.31428571428571,0.008610562774510902
47.42857142857143,0.008609804746475064
47.542857142857144,0.008645748285484377
47.65714285714286,0.008701399156828526
47.77142857142857,0.00875465092834743
47.885714285714286,0.008784159749747271
48.0,0.008777417171807574
48.114285714285714,0.008737183804589026
48.22857142857143,0.00868189557879026
48.34285714285714,0.008638447599419912
48.457142857142856,0.00863020255288244
48.57142857142857,0.008666236783134057
48.68571428571428,0.008737748885311208
48.8,0.00882429410729272
48.91428571428571,0.008907731889052526
49.028571428571425,0.008987546811724357
49.14285714285714,0.009089242274224791
49.25714285714285,0.00925902216371018
49.37142857142857,0.009543391425880919
49.48571428571429,0.009960378158565375
49.6,0.010476155245283775
49.714285714285715,0.011001857833260159
49.82857142857143,0.011417301144043475
49.94285714285714,0.01161383062357426
50.05714285714286,0.01153629899558281
50.17142857142857,0.011203121672557003
50.285714285714285,0.01069527485554125
50.4,0.010122116614321455
50.51428571428571,0.009582535848048659
50.628571428571426,0.009138325010621597
50.74285714285714,0.00880653173753185
50.857142857142854,0.008567463018452843
50.97142857142857,0.008380712308694914
51.08571428571428,0.008202570397828466
51.199999999999996,0.008000656276521212
51.31428571428571,0.00776306344371311
51.42857142857142,0.007500160630775099
51.542857142857144,0.0072388383873653785
51.65714285714286,0.007011575090212548
51.77142857142857,0.00684476906585314
51.885714285714286,0.0067509010347833985
52.0,0.0067271538030311264
52.114285714285714,0.006760248469679873
52.22857142857143,0.006834756396823296
52.34285714285714,0.006940825029952474
52.457142857142856,0.007077547130650355
52.57142857142857,0.007250259176283785
52.68571428571428,0.007463277787042545
52.8,0.00771229238072331
52.91428571428571,0.007980906791145524
53.028571428571425,0.008243194551407105
53.14285714285714,0.00847038737600965
53.25714285714285,0.008637720532188866
53.37142857142857,0.008728412302036
53.48571428571429,0.008734631267686501
53.6,0.008657565506138058
53.714285714285715,0.00850860603193623
53.82857142857143,0.008311506908127264
53.94285714285714,0.008103061527988687
54.05714285714286,0.007929285016290956
54.17142857142857,0.007836030974855893
54.285714285714285,0.007856396204788037
54.4,0.007999973181648513
54.51428571428571,0.008248970290090932
54.628571428571426,0.008563121126917863
54.74285714285714,0.008890993857809937
54.857142857142854,0.009182539146876351
54.97142857142857,0.009398091461820765
55.08571428571428,0.009511948993044073
