Frequency,PSD
6.057142857142857,0.38382517579556674
6.171428571428571,0.3914387637642407
6.285714285714286,0.40336873380954164
6.3999999999999995,0.4147013736532219
6.514285714285714,0.42163121678898474
6.628571428571428,0.42406691926133766
6.742857142857143,0.4266617545709124
6.857142857142857,0.4371065282049618
6.9714285714285715,0.4618387505201182
7.085714285714285,0.5014520082784962
7.2,0.5493197031440455
7.314285714285714,0.5948982434033543
7.428571428571428,0.6288116959841532
7.542857142857143,0.6455482730239109
7.657142857142857,0.643629110197409
7.771428571428571,0.6265317676158894
7.885714285714285,0.6053344616503349
8.0,0.5998370367834577
8.114285714285714,0.6348880317514813
8.228571428571428,0.732193078621102
8.342857142857143,0.9002968427731681
8.457142857142857,1.1256039022774786
8.571428571428571,1.368646501402664
8.685714285714285,1.5721940617693553
8.799999999999999,1.6835557771465692
8.914285714285715,1.6801835534134968
9.028571428571428,1.579525253537133
9.142857142857142,1.424870316648873
9.257142857142856,1.2596064446710742
9.371428571428572,1.1103895106532347
9.485714285714286,0.9876059428817452
9.6,0.8943289854077642
9.714285714285714,0.8314773427305517
9.828571428571427,0.7974228150919551
9.942857142857143,0.7885083269636075
10.057142857142857,0.8029250269851463
10.17142857142857,0.842531008995938
10.285714285714285,0.9079898591835157
10.4,0.9912086596272608
10.514285714285714,1.0730993635140027
10.628571428571428,1.1287323572881671
10.742857142857142,1.135728090393509
10.857142857142858,1.08263208257155
10.971428571428572,0.9751081594005007
11.085714285714285,0.8351522094381783
11.2,0.6907921437871509
11.314285714285713,0.5627100789333711
11.428571428571429,0.4579401343960431
11.542857142857143,0.3736166049184757
11.657142857142857,0.3048544358799628
11.77142857142857,0.24952011035601326
11.885714285714286,0.2077756594830823
12.0,0.17923678980727809
12.114285714285714,0.1613911821967752
12.228571428571428,0.15054771745818035
12.342857142857142,0.14405759618222144
12.457142857142857,0.1416072713172351
12.571428571428571,0.144251896890685
12.685714285714285,0.15197041090193894
12.799999999999999,0.16211309568338247
12.914285714285715,0.1703129819852339
13.028571428571428,0.17291809257994603
13.142857142857142,0.16866334277924272
13.257142857142856,0.15860343231481375
13.371428571428572,0.14532376682211304
13.485714285714286,0.13246250662260745
13.6,0.12410878727527425
13.714285714285714,0.12337627415751476
13.828571428571427,0.1307551019141395
13.942857142857143,0.1435139318565288
14.057142857142857,0.15666610218269703
14.17142857142857,0.1651048636313868
14.285714285714285,0.16599662062705617
14.4,0.16009163617197994
14.514285714285714,0.15094137181714193
14.628571428571428,0.1426261687838903
14.742857142857142,0.1378742796041368
14.857142857142856,0.13767342936407548
14.971428571428572,0.14179098823235267
15.085714285714285,0.14924006297675488
15.2,0.15854356843845047
15.314285714285713,0.168072083473105
15.428571428571429,0.1764139771057487
15.542857142857143,0.18251281844648026
15.657142857142857,0.1855837797025553
15.77142857142857,0.1851410183617479
15.885714285714284,0.18128284283370444
16.0,0.17488943447244681
16.114285714285714,0.16732178661182875
16.228571428571428,0.1597511790158568
16.34285714285714,0.15276558767384607
16.457142857142856,0.14673511757998364
16.57142857142857,0.1425508321586349
16.685714285714287,0.14168721233508252
16.8,0.14518057568852144
16.914285714285715,0.15253826362164452
17.02857142857143,0.16183705049248823
17.142857142857142,0.17090732645788798
17.257142857142856,0.17839233320985967
17.37142857142857,0.18383930975865231
17.485714285714284,0.18703114021853912
17.599999999999998,0.1873966322199503
17.714285714285715,0.18413662077172177
17.82857142857143,0.17684339136716729
17.942857142857143,0.16581172460100727
18.057142857142857,0.1517833889495076
18.17142857142857,0.1357459471979626
18.285714285714285,0.11917232760741109
18.4,0.10411157568472479
18.514285714285712,0.09253709692856443
18.628571428571426,0.08544617685768896
18.742857142857144,0.08262798189283325
18.857142857142858,0.08308885085445043
18.97142857142857,0.08536615787415228
19.085714285714285,0.0875540641702751
19.2,0.0876893933224307
19.314285714285713,0.08469362170318728
19.428571428571427,0.0790191401169282
19.54285714285714,0.07225374681576159
19.657142857142855,0.06609349191807808
19.771428571428572,0.061615783822184717
19.885714285714286,0.0591505142823796
20.0,0.0583992483558194
20.114285714285714,0.05856907449576622
20.228571428571428,0.058653479261541824
20.34285714285714,0.05792419783467065
20.457142857142856,0.05633371561653714
20.57142857142857,0.05447207040929693
20.685714285714287,0.05313780269640224
20.8,0.052930310279215055
20.914285714285715,0.05408619806693941
21.02857142857143,0.05642272242175063
21.142857142857142,0.05929804008761809
21.257142857142856,0.06176031645351232
21.37142857142857,0.06295249838586621
21.485714285714284,0.062474334913926524
21.599999999999998,0.06041027533398054
21.714285714285715,0.05712815291560141
21.82857142857143,0.05311379848151662
21.942857142857143,0.04889009986203316
22.057142857142857,0.04494776950927623
22.17142857142857,0.04170362326736522
22.285714285714285,0.03948676386628171
22.4,0.03846218894134139
22.514285714285712,0.038516577249827426
22.628571428571426,0.039294827502770704
22.742857142857144,0.04041782173206766
22.857142857142858,0.04162762137921419
22.97142857142857,0.04269978942833628
23.085714285714285,0.043320883506798816
23.2,0.04317914184042974
23.314285714285713,0.04219218538800994
23.428571428571427,0.040594748605012575
23.54285714285714,0.038784532545026146
23.657142857142855,0.037092826934003696
23.771428571428572,0.035676717321474836
23.885714285714286,0.03455917709241849
24.0,0.0337237197322264
24.114285714285714,0.03318872776648004
24.228571428571428,0.03302870720477114
24.34285714285714,0.033306214060627684
24.457142857142856,0.033910873874760404
24.57142857142857,0.03443397169262381
24.685714285714283,0.03428308939693938
24.8,0.03305587303900182
24.914285714285715,0.030883539225279574
25.02857142857143,0.02840801987901521
25.142857142857142,0.026372079760555615
25.257142857142856,0.02516289263147065
25.37142857142857,0.02469482060369306
25.485714285714284,0.024687499203407525
25.599999999999998,0.025013183837059725
25.71428571428571,0.025764013202511454
25.82857142857143,0.02703383916585124
25.942857142857143,0.028694926086986927
26.057142857142857,0.030376254953659653
26.17142857142857,0.031597738940387164
26.285714285714285,0.03192983396586557
26.4,0.031152133201668743
26.514285714285712,0.029404603997214757
26.628571428571426,0.02720126815964632
26.742857142857144,0.02519600096063865
26.857142857142858,0.023842103892811082
26.97142857142857,0.023225354211226283
27.085714285714285,0.0231672608138811
27.2,0.023448690754642877
27.314285714285713,0.023956874082060695
27.428571428571427,0.02465838766608281
27.54285714285714,0.025431830670446964
27.657142857142855,0.025933941856792136
27.771428571428572,0.025709950006904365
27.885714285714286,0.02453753135614608
28.0,0.022678577172110782
28.114285714285714,0.020732674436314498
28.228571428571428,0.019201581414657293
28.34285714285714,0.0181864867804985
28.457142857142856,0.017473389811505993
28.57142857142857,0.01685566874393026
28.685714285714283,0.016355963901196813
28.8,0.016167075105488128
28.914285714285715,0.016412636701812564
29.02857142857143,0.016969367341300327
29.142857142857142,0.017504508547588112
29.257142857142856,0.017682382457828955
29.37142857142857,0.017372413684931448
29.485714285714284,0.016719426133550805
29.599999999999998,0.016041887121336123
29.71428571428571,0.015624020830712342
29.82857142857143,0.01553572231378349
29.942857142857143,0.015612388788000878
30.057142857142857,0.01561869977466014
30.17142857142857,0.01546623708390147
30.285714285714285,0.015296684249689385
30.4,0.015352627066057157
30.514285714285712,0.01574594538521561
30.628571428571426,0.01633054639307755
30.74285714285714,0.016803466161330934
30.857142857142858,0.016958790364391775
30.97142857142857,0.016864510301733412
31.085714285714285,0.016776280820112087
31.2,0.01685586398083438
31.314285714285713,0.01699757956317264
31.428571428571427,0.016976848078500216
31.54285714285714,0.016758297371050106
31.657142857142855,0.016587657233817936
31.77142857142857,0.016736116947017498
31.885714285714286,0.017182621376835645
32.0,0.01760151867085537
32.114285714285714,0.0176706985374903
32.22857142857143,0.017352852071631536
32.34285714285714,0.016862705865284603
32.457142857142856,0.01641506629968978
32.57142857142857,0.01606012966782195
32.68571428571428,0.015735996226106948
32.8,0.015401687370205459
32.91428571428571,0.015090157380509934
33.028571428571425,0.014876188776701974
33.14285714285714,0.014829719237286427
33.25714285714285,0.014976619174406772
33.371428571428574,0.015263150912894347
33.48571428571429,0.015555326714910174
33.6,0.01570218601355257
33.714285714285715,0.015629344699059064
33.82857142857143,0.01539205224100771
33.94285714285714,0.01515021989839098
34.05714285714286,0.015083819919886452
34.17142857142857,0.015295862350632307
34.285714285714285,0.015752049186122764
34.4,0.01628870844801029
34.51428571428571,0.016681306222267562
34.628571428571426,0.01673169195935371
34.74285714285714,0.016337570400975818
34.857142857142854,0.015530853552031553
34.97142857142857,0.01447256955361954
35.08571428571428,0.0133915700603638
35.199999999999996,0.012490881880543887
35.31428571428572,0.011881268045276627
35.42857142857143,0.011571255601707627
35.542857142857144,0.01148597173751167
35.65714285714286,0.011496885158393973
35.77142857142857,0.011486417939946451
35.885714285714286,0.011433022335039207
36.0,0.01142774133566755
36.114285714285714,0.011580029869456927
36.22857142857143,0.01191026498941864
36.34285714285714,0.012342285282037416
36.457142857142856,0.012763124776568767
36.57142857142857,0.013046456630360906
36.68571428571428,0.013052875202519219
36.8,0.012699856608957446
36.91428571428571,0.012071179221733888
37.028571428571425,0.011411823963278138
37.14285714285714,0.010958993724416216
37.25714285714285,0.01076314977371833
37.371428571428574,0.010679406893018393
37.48571428571429,0.010531794344577803
37.6,0.010281871093949338
37.714285714285715,0.010045808962752721
37.82857142857143,0.00996671137942303
37.94285714285714,0.01007538961799905
38.05714285714286,0.010252446959912367
38.17142857142857,0.010308096498610659
38.285714285714285,0.010120312937474571
38.4,0.009729580507934309
38.51428571428571,0.009301700282815918
38.628571428571426,0.008979331142624612
38.74285714285714,0.008767078488186008
38.857142857142854,0.00857012831401289
38.97142857142857,0.008331741852663749
39.08571428571428,0.00810148939986408
39.199999999999996,0.007960577479596626
39.31428571428571,0.007910285975384403
39.42857142857143,0.007866567471396869
39.542857142857144,0.0077624569860033354
39.65714285714286,0.007629574729718125
39.77142857142857,0.007568879529088599
39.885714285714286,0.0076568678289778685
40.0,0.007885642449504467
40.114285714285714,0.008170105391396945
40.22857142857143,0.00839560863916879
40.34285714285714,0.008482336436573167
40.457142857142856,0.00844175992934411
40.57142857142857,0.008377436111278861
40.68571428571428,0.0084102293694238
40.8,0.008586158299008858
40.91428571428571,0.008847598892599251
41.028571428571425,0.009079248887661621
41.14285714285714,0.009174626378288477
41.25714285714285,0.009079387038104146
41.371428571428574,0.008806419157823903
41.48571428571429,0.008423408232890993
41.6,0.008011716868373616
41.714285714285715,0.007622702589352993
41.82857142857143,0.0072732197026134145
41.94285714285714,0.006980827625383868
42.05714285714286,0.00679181352523615
42.17142857142857,0.006772603365239734
42.285714285714285,0.006982731746051947
42.4,0.007449407982863175
42.51428571428571,0.008139090652901968
42.628571428571426,0.008932817981091426
42.74285714285714,0.009638143543279689
42.857142857142854,0.01005264289464177
42.97142857142857,0.01004950837884878
43.08571428571428,0.009638970497515846
43.199999999999996,0.008971250724638202
43.31428571428571,0.008271099783067943
43.42857142857143,0.007736766402245634
43.542857142857144,0.007468859104606801
43.65714285714286,0.007467596485434496
43.77142857142857,0.007675466726638762
43.885714285714286,0.008016865926623854
44.0,0.008410864228469664
44.114285714285714,0.008771316691144428
44.22857142857143,0.009024866045078418
44.34285714285714,0.009151333051055867
44.457142857142856,0.00920259745956645
44.57142857142857,0.009253066633836127
44.68571428571428,0.009308811713764707
44.8,0.009273959369647037
44.91428571428571,0.00903294879698845
45.028571428571425,0.008580343713168478
45.14285714285714,0.008069975228686032
45.25714285714285,0.007736394531199661
45.37142857142857,0.0077542806982838506
45.48571428571429,0.00812739857750948
45.6,0.008664804725792093
45.714285714285715,0.009067808482542216
45.82857142857143,0.009095538427764296
45.94285714285714,0.0087039457491504
46.05714285714286,0.008054697801156507
46.17142857142857,0.00739745376358698
46.285714285714285,0.006930196138373329
46.4,0.006733287034917906
46.51428571428571,0.006787054936614324
46.628571428571426,0.00701993617086708
46.74285714285714,0.0073388266642424455
46.857142857142854,0.007639351963474307
46.97142857142857,0.007826031208126605
47.08571428571428,0.007850823364410528
47.199999999999996,0.007735126953354578
47.31428571428571,0.007549360664161797
47.42857142857143,0.007376071789933617
47.542857142857144,0.007288602133208043
47.65714285714286,0.007331836118799131
47.77142857142857,0.007485895257850111
47.885714285714286,0.007645523248270015
48.0,0.007663542221561062
48.114285714285714,0.007445484587684539
48.22857142857143,0.00702510544175563
48.34285714285714,0.0065646171948350596
48.457142857142856,0.006278667549704969
48.57142857142857,0.006326500384663942
48.68571428571428,0.006735740032669578
48.8,0.007401287598598814
48.91428571428571,0.008152397938843831
49.028571428571425,0.008868911899417995
49.14285714285714,0.009714190210649452
49.25714285714285,0.011675480004991043
49.37142857142857,0.01752931582797367
49.48571428571429,0.03269807552039656
49.6,0.06420303882589364
49.714285714285715,0.11564093752592469
49.82857142857143,0.17962354616670512
49.94285714285714,0.23519403391758126
50.05714285714286,0.2575469695009609
50.17142857142857,0.2354006189442599
50.285714285714285,0.1799360710687924
50.4,0.11591748844311278
50.51428571428571,0.06434034599496914
50.628571428571426,0.03268332388614301
50.74285714285714,0.01743474996453666
50.857142857142854,0.011604853509747017
50.97142857142857,0.00974816767712941
51.08571428571428,0.009054813828515447
51.199999999999996,0.008525994456995282
51.31428571428571,0.007978067635773935
51.42857142857142,0.007448049228356155
51.542857142857144,0.006977302683864513
51.65714285714286,0.006599678577979489
51.77142857142857,0.0063642077718503035
51.885714285714286,0.006309316308991795
52.0,0.006411694612376667
52.114285714285714,0.006577805209453882
52.22857142857143,0.0067089693700827365
52.34285714285714,0.006789616697173942
52.457142857142856,0.006902500134878906
52.57142857142857,0.007135654506223377
52.68571428571428,0.007468412546785668
52.8,0.00776186210466111
52.91428571428571,0.007871274822988873
53.028571428571425,0.00776411221309658
53.14285714285714,0.00752519845038079
53.25714285714285,0.00726062010865826
53.37142857142857,0.0070164373592170644
53.48571428571429,0.006789562940408566
53.6,0.006591260923477459
53.714285714285715,0.006476952625868778
53.82857142857143,0.00651298085210251
53.94285714285714,0.006716991071170519
54.05714285714286,0.007020749043677823
54.17142857142857,0.007288583365735014
54.285714285714285,0.0073963012764856
54.4,0.007319676091731533
54.51428571428571,0.007145559768365145
54.628571428571426,0.006979961004804999
54.74285714285714,0.006846848531874822
54.857142857142854,0.006696620153036882
54.97142857142857,0.006512753669069433
55.08571428571428,0.006372620596022914
