Frequency,PSD
6.0,0.5240146872848335
6.08,0.524209912229529
6.16,0.5246012099362798
6.24,0.5251902605811666
6.32,0.5259795459440111
6.4,0.5269723036826414
6.48,0.5281724671270117
6.5600000000000005,0.5295845912506094
6.640000000000001,0.5312137656445448
6.72,0.5330655154871673
6.8,0.535145691666282
6.88,0.5374603513684375
6.96,0.540015630595797
7.04,0.5428176102007197
7.12,0.5458721771359863
7.2,0.5491848826993319
7.28,0.5527607995998332
7.36,0.5566043796869059
7.44,0.560719314157631
7.5200000000000005,0.5651083979939884
7.6000000000000005,0.569773400279233
7.68,0.5747149419050518
7.76,0.5799323820131654
7.84,0.5854237143233747
7.92,0.5911854742928891
8.0,0.5972126578384468
8.08,0.6034986521430769
8.16,0.6100351788733085
8.24,0.616812249959383
8.32,0.6238181359486281
8.4,0.6310393468367428
8.48,0.6384606252172356
8.56,0.6460649515668624
8.64,0.653833561503024
8.72,0.6617459749032283
8.8,0.6697800368597131
8.88,0.6779119705446537
8.96,0.6861164421716603
9.040000000000001,0.6943666383449759
9.120000000000001,0.7026343561758946
9.200000000000001,0.710890106603832
9.28,0.7191032313756923
9.36,0.7272420341022123
9.44,0.7352739257167733
9.52,0.7431655845070688
9.6,0.7508831306724874
9.68,0.7583923150834997
9.76,0.7656587215905154
9.84,0.7726479818587932
9.92,0.779326001306087
10.0,0.7856591943061857
10.08,0.7916147264111764
10.16,0.7971607609558179
10.24,0.8022667070563585
10.32,0.8069034657200271
10.4,0.8110436705550956
10.48,0.8146619194273096
10.56,0.8177349933559721
10.64,0.8202420589881815
10.72,0.8221648511350127
10.8,0.8234878320976
10.88,0.8241983248492195
10.96,0.8242866175633768
11.040000000000001,0.823746037476379
11.120000000000001,0.8225729926321739
11.200000000000001,0.8207669806616553
11.28,0.8183305643811333
11.36,0.8152693146373167
11.44,0.811591721461046
11.52,0.807309075201448
11.6,0.8024353198796141
11.68,0.7969868815111067
11.76,0.7909824745863028
11.84,0.7844428902556897
11.92,0.7773907700352414
12.0,0.7698503690190729
12.08,0.7618473126597823
12.16,0.7534083511512181
12.24,0.7445611153267307
12.32,0.7353338777739828
12.4,0.7257553225733393
12.48,0.7158543267014071
12.56,0.7056597557170076
12.64,0.6952002758779396
12.72,0.684504184338588
12.8,0.673599258566585
12.88,0.6625126256071641
12.96,0.651270651331845
13.040000000000001,0.6398988493477981
13.120000000000001,0.6284218088282352
13.200000000000001,0.6168631401628731
13.280000000000001,0.6052454370290556
13.36,0.59359025325377
13.44,0.5819180926772266
13.52,0.5702484101395494
13.6,0.5585996216906041
13.68,0.5469891221636305
13.76,0.5354333083487784
13.84,0.5239476061437073
13.92,0.5125465002349339
14.0,0.5012435650647212
14.08,0.49005149605313797
14.16,0.4789821402629918
14.24,0.4680465259071425
14.32,0.45725489029493854
14.4,0.4466167059905465
14.48,0.43614070510580366
14.56,0.4258349017709068
14.64,0.41570661291645933
14.72,0.4057624775606673
14.8,0.3960084748277487
14.88,0.38644994093119656
14.96,0.37709158534259046
15.040000000000001,0.36793750633807515
15.120000000000001,0.35899120607553825
15.200000000000001,0.3502556053111222
15.280000000000001,0.34173305781885654
15.36,0.3334253645362535
15.44,0.32533378742533287
15.52,0.31745906301551363
15.6,0.30980141558399693
15.68,0.30236056993156835
15.76,0.2951357637271175
15.84,0.28812575942168206
15.92,0.2813288557707417
16.0,0.27474289904945515
16.080000000000002,0.2683652940966177
16.16,0.26219301537610334
16.240000000000002,0.25622261829599796
16.32,0.2504502510720782
16.4,0.24487166746048772
16.48,0.23948224071143726
16.56,0.23427697910901052
16.64,0.22925054345981535
16.72,0.2243972668740378
16.8,0.21971117714603616
16.88,0.2151860219882666
16.96,0.21081529730327217
17.04,0.2065922785956123
17.12,0.2025100555316112
17.2,0.19856156955292134
17.28,0.19473965434382023
17.36,0.19103707884590235
17.44,0.1874465924115273
17.52,0.18396097159304323
17.6,0.1805730679822759
17.68,0.17727585644731023
17.76,0.17406248306399805
17.84,0.17092631200984418
17.92,0.16786097067916167
18.0,0.16486039229091454
18.080000000000002,0.16191885529393724
18.16,0.15903101892678542
18.240000000000002,0.15619195435924
18.32,0.1533971709266319
18.400000000000002,0.15064263706351919
18.48,0.14792479564626904
18.56,0.14524057356122688
18.64,0.1425873854228238
18.72,0.13996313147096542
18.8,0.13736618977642234
18.88,0.13479540297441284
18.96,0.13225005982825105
19.04,0.12972987199573235
19.12,0.12723494643018676
19.2,0.1247657538958884
19.28,0.12232309411416414
19.36,0.11990805808297346
19.44,0.11752198812995503
19.52,0.11516643626823615
19.6,0.11284312142681273
19.68,0.11055388612420791
19.76,0.10830065314627976
19.84,0.1060853827771567
19.92,0.10391003111667976
20.0,0.10177650999853685
20.080000000000002,0.09968664900023458
20.16,0.09764216000884288
20.240000000000002,0.09564460477443051
20.32,0.09369536584579563
20.400000000000002,0.0917956212398232
20.48,0.08994632314629267
20.56,0.0881481809139014
20.64,0.0864016485009126
20.72,0.08470691650553433
20.8,0.08306390881782863
20.88,0.0814722838577926
20.96,0.07993144028484696
21.04,0.07844052698416251
21.12,0.07699845705714711
21.2,0.07560392546921439
21.28,0.07425542993990637
21.36,0.07295129460071692
21.44,0.07168969589655341
21.52,0.07046869016934702
21.6,0.069286242338261
21.68,0.06814025508107993
21.76,0.06702859792616074
21.84,0.06594913568362817
21.92,0.064899755677742
22.0,0.0638783932884007
22.080000000000002,0.06288305536709758
22.16,0.06191184115932739
22.240000000000002,0.060962960439311695
22.32,0.06003474864151633
22.400000000000002,0.05912567885425816
22.48,0.058234370621262396
22.56,0.05735959557484954
22.64,0.05650027999730517
22.72,0.05565550447293338
22.8,0.05482450085063344
22.88,0.054006646784336775
22.96,0.05320145815541984
23.04,0.05240857970680324
23.12,0.05162777423288281
23.2,0.05085891067302179
23.28,0.0501019514498392
23.36,0.04935693937795546
23.44,0.04862398444547361
23.52,0.0479032507407702
23.6,0.04719494376265127
23.68,0.046499298314257094
23.76,0.0458165671417998
23.84,0.04514701043982042
23.92,0.04449088630649047
24.0,0.04384844219675298
24.080000000000002,0.04321990738873834
24.16,0.04260548645069768
24.240000000000002,0.04200535367211643
24.32,0.041419648404055945
24.400000000000002,0.04084847124011463
24.48,0.040291880960638994
24.560000000000002,0.03974989215861157
24.64,0.03922247346557786
24.72,0.03870954629951329
24.8,0.03821098406307919
24.88,0.03772661172961219
24.96,0.03725620576480623
25.04,0.0367994943437247
25.12,0.036356157834948354
25.2,0.03592582953574025
25.28,0.03550809665364152
25.36,0.035102501540419065
25.44,0.03470854319348454
25.52,0.034325679047408714
25.6,0.03395332708380498
25.68,0.03359086829141965
25.76,0.03323764950964194
25.84,0.03289298668773773
25.92,0.03255616858889163
26.0,0.03222646096261817
26.080000000000002,0.03190311120133279
26.16,0.031585353486972445
26.240000000000002,0.031272414421681424
26.32,0.030963519122966524
26.400000000000002,0.030657897748666278
26.48,0.030354792400919088
26.560000000000002,0.030053464341524033
26.64,0.02975320143410031
26.72,0.02945332571190057
26.8,0.029153200954548077
26.88,0.028852240143061647
26.96,0.028549912650886133
27.04,0.028245751019972468
27.12,0.027939357165776696
27.2,0.027630407853976423
27.28,0.027318659295107052
27.36,0.027003950711555518
27.44,0.02668620674451751
27.52,0.02636543858667835
27.6,0.026041743749213676
27.68,0.025715304398924842
27.76,0.025386384232250404
27.84,0.025055323886800287
27.92,0.024722534926999537
28.0,0.0243884924773286
28.080000000000002,0.024053726613359454
28.16,0.023718812656105436
28.240000000000002,0.02338436054788237
28.32,0.02305100351680861
28.400000000000002,0.02271938626109605
28.48,0.022390152902552175
28.560000000000002,0.022063934970386365
28.64,0.021741339681012918
28.72,0.02142293877671831
28.8,0.02110925817578651
28.88,0.020800768669133163
28.96,0.02049787787417809
29.04,0.020200923626229196
29.12,0.019910168952016975
29.2,0.019625798730211724
29.28,0.019347918101049712
29.36,0.019076552642842352
29.44,0.018811650288481852
29.52,0.0185530849114522
29.6,0.01830066146954693
29.68,0.01805412255669252
29.76,0.017813156180035747
29.84,0.01757740455164351
29.92,0.017346473662535812
30.0,0.01711994339177071
30.080000000000002,0.016897377895275838
30.16,0.01667833601809777
30.240000000000002,0.0164623814796288
30.32,0.0162490925937969
30.400000000000002,0.016038071304697747
30.48,0.01582895134198515
30.560000000000002,0.015621405328764956
30.64,0.015415150706769
30.72,0.015209954378303598
30.8,0.01500563600074732
30.88,0.014802069906224178
30.96,0.01459918565540137
31.04,0.014396967269186427
31.12,0.014195451214475433
31.2,0.013994723249205964
31.28,0.013794914257062682
31.36,0.013596195222711393
31.44,0.01339877151393169
31.52,0.013202876647250214
31.6,0.013008765718490915
31.68,0.01281670867917581
31.76,0.012626983634083374
31.84,0.012439870324941784
31.92,0.012255643950651788
32.0,0.012074569456270504
32.08,0.011896896401928848
32.160000000000004,0.01172285449971466
32.24,0.011552649882129172
32.32,0.011386462140895873
32.4,0.011224442150427269
32.480000000000004,0.011066710666969591
32.56,0.010913357672984063
32.64,0.010764442417344037
32.72,0.010619994085856574
32.8,0.01048001302388037
32.88,0.010344472423546197
32.96,0.010213320382482557
33.04,0.010086482238836288
33.12,0.009963863088691717
33.2,0.009845350396342142
33.28,0.009730816614952299
33.36,0.00962012174442778
33.44,0.009513115764335289
33.52,0.009409640891885342
33.6,0.009309533627789005
33.68,0.009212626565685488
33.76,0.009118749953291861
33.84,0.009027733005027726
33.92,0.008939404976239284
34.0,0.00885359601795202
34.08,0.008770137838170346
34.160000000000004,0.008688864200913901
34.24,0.008609611297450383
34.32,0.008532218025535696
34.4,0.008456526212071486
34.480000000000004,0.008382380812523425
34.56,0.008309630117029588
34.64,0.008238125988516636
34.72,0.008167724152715878
34.800000000000004,0.008098284553931901
34.88,0.00802967178413466
34.96,0.00796175558664915
35.04,0.007894411429700649
35.12,0.007827521139565266
35.2,0.007760973578269339
35.28,0.007694665346857317
35.36,0.007628501492305119
35.44,0.007562396194300057
35.52,0.007496273407341988
35.6,0.007430067433956537
35.68,0.007363723406194933
35.76,0.007297197654925799
35.84,0.007230457949601202
35.92,0.00716348359502994
36.0,0.007096265376075694
36.08,0.007028805345883711
36.160000000000004,0.00696111645809373
36.24,0.006893222048258023
36.32,0.006825155174223093
36.4,0.006756957829335201
36.480000000000004,0.006688680045864557
36.56,0.00662037890888697
36.64,0.006552117502898968
36.72,0.006483963814650387
36.800000000000004,0.0064159896160097775
36.88,0.0063482693501701725
36.96,0.006280879043195632
37.04,0.0062138952609067395
37.12,0.006147394128516
37.2,0.00608145042737375
37.28,0.00601613677986949
37.36,0.0059515229300441015
37.44,0.005887675124039423
37.52,0.005824655591221108
37.6,0.005762522123844708
37.68,0.005701327750561362
37.76,0.0056411204969948866
37.84,0.005581943225084139
37.92,0.005523833541925933
38.0,0.005466823768429476
38.08,0.005410940958209206
38.160000000000004,0.00535620695767948
38.24,0.005302638499248714
38.32,0.005250247320703182
38.4,0.005199040305233979
38.480000000000004,0.0051490196380062515
38.56,0.005100182976565594
38.64,0.0050525236336678905
38.72,0.005006030772212254
38.800000000000004,0.0049606896127938754
38.88,0.004916481654954018
38.96,0.0048733849134476315
39.04,0.0048313741707925635
39.12,0.0047904212470202805
39.2,0.004750495286947726
39.28,0.004711563064490203
39.36,0.004673589302576025
39.44,0.004636537006182059
39.52,0.004600367804941063
39.6,0.004565042300742211
39.68,0.00453052041482356
39.76,0.0044967617280798925
39.84,0.004463725807764406
39.92,0.004431372513435401
40.0,0.004399662274991712
40.08,0.004368556335905906
40.160000000000004,0.004338016955360959
40.24,0.004308007563907411
40.32,0.004278492868459986
40.4,0.004249438903939629
40.480000000000004,0.004220813030589858
40.56,0.004192583877902184
40.64,0.004164721238132225
40.72,0.004137195914471451
40.800000000000004,0.004109979531023303
40.88,0.004083044313683707
40.96,0.004056362852802105
41.04,0.004029907859962804
41.12,0.004003651932344148
41.2,0.003977567338755146
41.28,0.003951625841595928
41.36,0.003925798568560524
41.44,0.0039000559468922768
41.52,0.0038743677113924546
41.6,0.00384870299520891
41.68,0.0038230305097350413
41.76,0.003797318816812054
41.84,0.0037715366929334413
41.92,0.003745653581468328
42.0,0.003719640125114448
42.08,0.003693468767106199
42.160000000000004,0.003667114406208584
42.24,0.003640555087444765
42.32,0.003613772707933031
42.4,0.0035867537153061848
42.480000000000004,0.003559489775029948
42.56,0.0035319783826297853
42.64,0.003504223397381009
42.72,0.0034762354754641796
42.800000000000004,0.0034480323828513064
42.88,0.003419639171252137
42.96,0.0033910882041614547
43.04,0.003362419024312193
43.12,0.0033336780584784613
43.2,0.0033049181604293335
43.28,0.0032761979977136493
43.36,0.003247581292696554
43.44,0.0032191359326834423
43.52,0.003190932967901154
43.6,0.003163045519432592
43.68,0.0031355476217993002
43.76,0.0031085130266802086
43.84,0.00308201399520828
43.92,0.00305612010636838
44.0,0.0030308971082750828
44.08,0.003006405837561966
44.160000000000004,0.002982701229869069
44.24,0.0029598314415563327
44.32,0.0029378370994188625
44.4,0.0029167506914760857
44.480000000000004,0.0028965961079798017
44.56,0.0028773883377613673
44.64,0.0028591333210858678
44.72,0.0028418279563689666
44.800000000000004,0.0028254602546120243
44.88,0.0028100096322556355
44.96,0.0027954473304649032
45.04,0.0027817369466694598
45.12,0.002768835062521395
45.2,0.0027566919513337743
45.28,0.0027452523475017185
45.36,0.002734456260365739
45.44,0.002724239815424306
45.52,0.0027145361066707122
45.6,0.00270527604507592
45.68,0.0026963891897747744
45.76,0.0026878045502760906
45.84,0.002679451349934109
45.92,0.00267125974289845
46.0,0.002663161478744635
46.08,0.0026550905109049353
46.160000000000004,0.0026469835468171873
46.24,0.002638780539310232
46.32,0.002630425120150586
46.4,0.002621864977809859
46.480000000000004,0.0026130521823848098
46.56,0.002603943461192467
46.64,0.0025945004288610747
46.72,0.002584689775782991
46.800000000000004,0.0025744834185614275
46.88,0.002563858615654297
46.96,0.002552798050767576
47.04,0.002541289885775056
47.12,0.002529327784045656
47.2,0.0025169109041093575
47.28,0.002504043862643617
47.36,0.0024907366648498075
47.44,0.002477004599482774
47.52,0.00246286809512471
47.6,0.0024483525338331834
47.68,0.00243348801803581
47.76,0.0024183090865866584
47.84,0.0024028543762017254
47.92,0.002387166225128433
48.0,0.002371290216835395
48.08,0.0023552746627587134
48.160000000000004,0.0023391700246795134
48.24,0.0023230282790855615
48.32,0.0023069022278729076
48.4,0.0022908447618784702
48.480000000000004,0.0022749080859486674
48.56,0.002259142916451618
48.64,0.002243597664242005
48.72,0.0022283176179966648
48.800000000000004,0.00221334414445145
48.88,0.0021987139233019606
48.96,0.0021844582352926155
49.04,0.002170602322241564
49.120000000000005,0.0021571648373724245
49.2,0.002144157403322286
49.28,0.002131584293550391
49.36,0.0021194422505950786
49.44,0.002107720451777779
49.52,0.002096400629577593
49.6,0.002085457350108899
49.68,0.0020748584490350164
49.76,0.0020645656199853694
49.84,0.0020545351462436696
49.92,0.002044718762318227
50.0,0.002035064628111826
50.08,0.0020255183949633923
50.160000000000004,0.0020160243399381175
50.24,0.002006526542519954
50.32,0.0019969700764109477
50.4,0.00198730218850085
50.480000000000004,0.0019774734372854375
50.56,0.0019674387640663225
50.64,0.0019571584721125336
50.72,0.0019465990915538273
50.800000000000004,0.0019357341109881715
50.88,0.0019245445605078383
50.96,0.0019130194349526418
51.04,0.0019011559505092979
51.120000000000005,0.0018889596321684798
51.2,0.0018764442338615496
51.28,0.0018636314971718325
51.36,0.0018505507582614565
51.44,0.0018372384159281475
51.52,0.0018237372764436967
51.6,0.0018100957929756932
51.68,0.0017963672189027103
51.76,0.0017826086952229658
51.84,0.0017688802925221094
51.92,0.001755244027683853
52.0,0.001741762874706539
52.08,0.0017284997877766144
52.160000000000004,0.001715516753161457
52.24,0.0017028738846606647
52.32,0.0016906285753587671
52.4,0.0016788347163665049
52.480000000000004,0.0016675419911735614
52.56,0.001656795252250147
52.64,0.0016466339846932243
52.72,0.0016370918600271123
52.800000000000004,0.0016281963817908664
52.88,0.0016199686232869302
52.96,0.001612423056798146
53.04,0.001605567472727559
53.120000000000005,0.0015994029864271724
53.2,0.001593924129930594
53.28,0.0015891190253626564
53.36,0.0015849696364273608
53.44,0.0015814520940260523
53.52,0.0015785370917131098
53.6,0.00157619034631806
53.68,0.0015743731186403402
53.76,0.0015730427886260362
53.84,0.0015721534788952496
53.92,0.0015716567198678145
54.0,0.0015715021490922214
54.08,0.0015716382367103664
54.160000000000004,0.0015720130283285107
54.24,0.001572574895958149
54.32,0.0015732732871499974
54.4,0.001574059462037963
54.480000000000004,0.0015748872077420736
54.56,0.0015757135195074634
54.64,0.0015764992380871501
54.72,0.0015772096332345744
54.800000000000004,0.0015778149237675846
54.88,0.0015782907254945442
54.96,0.001578618419350272
55.04,0.0015787854333409318
