Frequency,PSD
6.057142857142857,0.3716271967587375
6.171428571428571,0.3837626795210474
6.285714285714286,0.40765937534513386
6.3999999999999995,0.4417535969829533
6.514285714285714,0.48310820548793687
6.628571428571428,0.5283758425608929
6.742857142857143,0.5747571487494838
6.857142857142857,0.6199877522498919
6.9714285714285715,0.6617333163825222
7.085714285714285,0.6972165879617598
7.2,0.7236884787736381
7.314285714285714,0.7404280670377429
7.428571428571428,0.7520072134844934
7.542857142857143,0.7699364572629118
7.657142857142857,0.8091237082718832
7.771428571428571,0.8798652999294883
7.885714285714285,0.9813715659190058
8.0,1.1026184649167323
8.114285714285714,1.2308129682430105
8.228571428571428,1.3626009178183327
8.342857142857143,1.5113482250684864
8.457142857142857,1.7048416127457915
8.571428571428571,1.9714097851538486
8.685714285714285,2.3183336859453245
8.799999999999999,2.7124168308183423
8.914285714285715,3.0761632838683024
9.028571428571428,3.309586623573539
9.142857142857142,3.332922411302643
9.257142857142856,3.1269031316475853
9.371428571428572,2.7435347212625834
9.485714285714286,2.279362133827664
9.6,1.8295910643260633
9.714285714285714,1.4526824668792178
9.828571428571427,1.163351405674883
9.942857142857143,0.9490516660197565
10.057142857142857,0.7909459671411244
10.17142857142857,0.6748001053470886
10.285714285714285,0.5912070285256119
10.4,0.5325811607407436
10.514285714285714,0.49206943883477505
10.628571428571428,0.4641605522026453
10.742857142857142,0.44490684567729133
10.857142857142858,0.43104419613141237
10.971428571428572,0.4189400945350473
11.085714285714285,0.40473742207673025
11.2,0.38606927093492793
11.314285714285713,0.363895567191411
11.428571428571429,0.34221314065475894
11.542857142857143,0.32504868084334143
11.657142857142857,0.31290515903506555
11.77142857142857,0.3017473468980154
11.885714285714286,0.28559002524110805
12.0,0.2606891806986741
12.114285714285714,0.22808551914022077
12.228571428571428,0.19286401065016542
12.342857142857142,0.16120458968573112
12.457142857142857,0.13748497896713185
12.571428571428571,0.122834736194398
12.685714285714285,0.11527958491422388
12.799999999999999,0.1111230294333537
12.914285714285715,0.10698274117676082
13.028571428571428,0.10141304052197146
13.142857142857142,0.09502575394702995
13.257142857142856,0.08913501411779867
13.371428571428572,0.08426093853245144
13.485714285714286,0.07980122185479875
13.6,0.07485692987796766
13.714285714285714,0.06915762250969641
13.828571428571427,0.06325608620311722
13.942857142857143,0.058031877910644264
14.057142857142857,0.054052444717539304
14.17142857142857,0.051289701057432135
14.285714285714285,0.049360221570995684
14.4,0.04805163598208432
14.514285714285714,0.04765284800439355
14.628571428571428,0.04876984216975708
14.742857142857142,0.051761598272343695
14.857142857142856,0.056251674824721695
14.971428571428572,0.06111188145032105
15.085714285714285,0.06495343396436418
15.2,0.06676791176728067
15.314285714285713,0.0662630417149465
15.428571428571429,0.06375048356929415
15.542857142857143,0.059839409846430755
15.657142857142857,0.05523979298297305
15.77142857142857,0.05070693114497136
15.885714285714284,0.04697058894487723
16.0,0.044579552205785494
16.114285714285714,0.043746252338085455
16.228571428571428,0.04430028587259717
16.34285714285714,0.04580261166556922
16.457142857142856,0.04779356651452285
16.57142857142857,0.050027297570416074
16.685714285714287,0.052488908975741766
16.8,0.055155031957375346
16.914285714285715,0.057724831643338574
17.02857142857143,0.05961264362259567
17.142857142857142,0.060274994932849595
17.257142857142856,0.05965007557975664
17.37142857142857,0.05835448177879333
17.485714285714284,0.057421171588679584
17.599999999999998,0.05769789077402912
17.714285714285715,0.0592992214137458
17.82857142857143,0.061487594217165674
17.942857142857143,0.06307155846044418
18.057142857142857,0.06307647140615984
18.17142857142857,0.061280122539773774
18.285714285714285,0.05830606533188626
18.4,0.055259552260077935
18.514285714285712,0.05315548799874548
18.628571428571426,0.052437518834773586
18.742857142857144,0.0527794080431762
18.857142857142858,0.053262281967744934
18.97142857142857,0.05289777276727795
19.085714285714285,0.05121615303153135
19.2,0.048487531072670786
19.314285714285713,0.04541229530815357
19.428571428571427,0.04260109693256214
19.54285714285714,0.04029983479964915
19.657142857142855,0.038473801413188624
19.771428571428572,0.03701221564490565
19.885714285714286,0.035827306938139444
20.0,0.03485562596734243
20.114285714285714,0.034074031468497516
20.228571428571428,0.03353964812225772
20.34285714285714,0.033363325399956636
20.457142857142856,0.03359276863626902
20.57142857142857,0.03411490495451337
20.685714285714287,0.03468474108984428
20.8,0.03504118806930917
20.914285714285715,0.034985395186101845
21.02857142857143,0.034391795379700885
21.142857142857142,0.03323533750676694
21.257142857142856,0.031659694029036484
21.37142857142857,0.029978395049554008
21.485714285714284,0.02852983101614065
21.599999999999998,0.027481611710367133
21.714285714285715,0.026750565574548295
21.82857142857143,0.02608295672628628
21.942857142857143,0.025209265735228765
22.057142857142857,0.02398627900131719
22.17142857142857,0.0224815404238728
22.285714285714285,0.02095670720272993
22.4,0.01973231200442404
22.514285714285712,0.019008088296404373
22.628571428571426,0.018770402701208496
22.742857142857144,0.018853124368639666
22.857142857142858,0.019085781100147605
22.97142857142857,0.01939057442179217
23.085714285714285,0.019748314114161628
23.2,0.020093209940419302
23.314285714285713,0.020275626160287923
23.428571428571427,0.020151442226442155
23.54285714285714,0.019698509451377463
23.657142857142855,0.019019589186346757
23.771428571428572,0.018226462478892057
23.885714285714286,0.017341706572849447
24.0,0.01632862054291037
24.114285714285714,0.015211340723713225
24.228571428571428,0.014152185904382617
24.34285714285714,0.013397482374183707
24.457142857142856,0.013127130825781722
24.57142857142857,0.013329659659499785
24.685714285714283,0.013801007544439886
24.8,0.014265813206362742
24.914285714285715,0.014539269551109221
25.02857142857143,0.014631953895806758
25.142857142857142,0.01473151666511988
25.257142857142856,0.01505784297330329
25.37142857142857,0.01567339436960746
25.485714285714284,0.016387594006359713
25.599999999999998,0.01685082802101196
25.71428571428571,0.016789202515800183
25.82857142857143,0.01620152998580123
25.942857142857143,0.015358689602921792
26.057142857142857,0.014608422986696866
26.17142857142857,0.014143546198656758
26.285714285714285,0.013902871348237934
26.4,0.013655024265274006
26.514285714285712,0.013182591739838552
26.628571428571426,0.012431958162479436
26.742857142857144,0.011536295327856334
26.857142857142858,0.010712654811879493
26.97142857142857,0.010118940333409869
27.085714285714285,0.009776939266591587
27.2,0.00960435142260237
27.314285714285713,0.009505849031414068
27.428571428571427,0.009439700070978805
27.54285714285714,0.00942294387451546
27.657142857142855,0.00949653188660458
27.771428571428572,0.009685456909279385
27.885714285714286,0.009973030659804264
28.0,0.010298713393695782
28.114285714285714,0.010585800483189462
28.228571428571428,0.01078921538627641
28.34285714285714,0.010926747859902206
28.457142857142856,0.011055000475292169
28.57142857142857,0.011199204411177738
28.685714285714283,0.011302371718646158
28.8,0.011250694847376244
28.914285714285715,0.010958789485482285
29.02857142857143,0.010442814127872091
29.142857142857142,0.009826241643970035
29.257142857142856,0.00928034299286172
29.37142857142857,0.00894089860918904
29.485714285714284,0.008845875261444137
29.599999999999998,0.008923409503289428
29.71428571428571,0.009037414388161464
29.82857142857143,0.009065537923787172
29.942857142857143,0.008957247197445542
30.057142857142857,0.008736010257213062
30.17142857142857,0.008461498980594943
30.285714285714285,0.00819317601432223
30.4,0.00797144038151493
30.514285714285712,0.0078062508376265044
30.628571428571426,0.007671808254098347
30.74285714285714,0.007520113001051014
30.857142857142858,0.007313096123127926
30.97142857142857,0.00705021759633756
31.085714285714285,0.006769874675713222
31.2,0.006526840423607606
31.314285714285713,0.006364467271550793
31.428571428571427,0.006296218655658946
31.54285714285714,0.006301369815093642
31.657142857142855,0.006336432721501701
31.77142857142857,0.0063581642043218775
31.885714285714286,0.00634133981262676
32.0,0.006273420500817803
32.114285714285714,0.006132921169317113
32.22857142857143,0.005884738264243614
32.34285714285714,0.0055132240265979154
32.457142857142856,0.005065602316079928
32.57142857142857,0.0046533922737669615
32.68571428571428,0.004397822938863986
32.8,0.004363839910885134
32.91428571428571,0.004534052801016567
33.028571428571425,0.004828007741770032
33.14285714285714,0.005137759722893012
33.25714285714285,0.0053606756700422175
33.371428571428574,0.005431208437664783
33.48571428571429,0.0053484637698085185
33.6,0.00517864333624468
33.714285714285715,0.0050173359767046784
33.82857142857143,0.0049306010086343464
33.94285714285714,0.004918790659291119
34.05714285714286,0.004930628722970054
34.17142857142857,0.004911037986092443
34.285714285714285,0.004839587593026174
34.4,0.004732159449736161
34.51428571428571,0.0046160993918435145
34.628571428571426,0.004509044244187264
34.74285714285714,0.004418102037369898
34.857142857142854,0.004349222230162938
34.97142857142857,0.004306817072950616
35.08571428571428,0.004281078449008693
35.199999999999996,0.004243547844280355
35.31428571428572,0.00416695698995274
35.42857142857143,0.004052424922370463
35.542857142857144,0.003930502486463066
35.65714285714286,0.003831808040002399
35.77142857142857,0.003760174212369128
35.885714285714286,0.0036943050299718216
36.0,0.0036078692476884944
36.114285714285714,0.0034862109322404034
36.22857142857143,0.003335769543292044
36.34285714285714,0.0031903799887498066
36.457142857142856,0.003106625026172377
36.57142857142857,0.0031383343705527968
36.68571428571428,0.0033006333935507877
36.8,0.0035512924222422426
36.91428571428571,0.003808269422256125
37.028571428571425,0.003994418089836071
37.14285714285714,0.004077824552062695
37.25714285714285,0.004078592241997908
37.371428571428574,0.004040366313081857
37.48571428571429,0.0039938551683495966
37.6,0.003941757227380822
37.714285714285715,0.00386961668657757
37.82857142857143,0.00376451568337257
37.94285714285714,0.003624897062545779
38.05714285714286,0.0034603653772731983
38.17142857142857,0.003288586868607655
38.285714285714285,0.0031330331875259404
38.4,0.0030202000725479284
38.51428571428571,0.0029738435731012968
38.628571428571426,0.0030058772736608627
38.74285714285714,0.003107326207441764
38.857142857142854,0.003245429676971859
38.97142857142857,0.0033716396465009032
39.08571428571428,0.003439605819160088
39.199999999999996,0.0034247479385227314
39.31428571428571,0.0033338767914662146
39.42857142857143,0.003199718167375498
39.542857142857144,0.003064991425021448
39.65714285714286,0.0029637171209372314
39.77142857142857,0.002906047549020357
39.885714285714286,0.002873761326030503
40.0,0.002831598765358095
40.114285714285714,0.0027496645018170807
40.22857142857143,0.0026229130328581443
40.34285714285714,0.0024752451573258408
40.457142857142856,0.002346282638695024
40.57142857142857,0.002270622745709017
40.68571428571428,0.002263833505820735
40.8,0.0023214776789885804
40.91428571428571,0.0024250286059126396
41.028571428571425,0.002547241658375373
41.14285714285714,0.0026588296646998643
41.25714285714285,0.0027403682919714713
41.371428571428574,0.0027927536181955584
41.48571428571429,0.0028338360692307073
41.6,0.002880591469197907
41.714285714285715,0.002931965688476771
41.82857142857143,0.0029675104288992365
41.94285714285714,0.00296213569981042
42.05714285714286,0.00290468637863464
42.17142857142857,0.0028073656752169536
42.285714285714285,0.0027005971997299465
42.4,0.002617092887682234
42.51428571428571,0.002575603146931056
42.628571428571426,0.0025751253557384185
42.74285714285714,0.002601850435002491
42.857142857142854,0.0026397633639526977
42.97142857142857,0.0026745199298752703
43.08571428571428,0.0026921842399983908
43.199999999999996,0.0026830084466087467
43.31428571428571,0.0026511728751148576
43.42857142857143,0.002617568722257339
43.542857142857144,0.002607022314376189
43.65714285714286,0.002629238915071964
43.77142857142857,0.0026700445830424475
43.885714285714286,0.0026994438902728426
44.0,0.002689703235305166
44.114285714285714,0.002630781456550767
44.22857142857143,0.0025331180168356392
44.34285714285714,0.002417741044174808
44.457142857142856,0.0023038660238009537
44.57142857142857,0.0022040238836092576
44.68571428571428,0.0021268023997248185
44.8,0.0020797816477885287
44.91428571428571,0.002067421302547009
45.028571428571425,0.002085736654825925
45.14285714285714,0.002119799394392026
45.25714285714285,0.002148424249667931
45.37142857142857,0.002154514956399505
45.48571428571429,0.0021339217597385303
45.6,0.0020958680047342597
45.714285714285715,0.0020551379079299164
45.82857142857143,0.0020229757793939094
45.94285714285714,0.002002758169132799
46.05714285714286,0.001991196697985539
46.17142857142857,0.0019830991698104126
46.285714285714285,0.001976841869120966
46.4,0.001976082205411325
46.51428571428571,0.001984924074582504
46.628571428571426,0.00200088968844612
46.74285714285714,0.002014452463222589
46.857142857142854,0.0020176321921474847
46.97142857142857,0.0020131102869392647
47.08571428571428,0.0020134635194001887
47.199999999999996,0.002031201399361209
47.31428571428571,0.0020710593679115724
47.42857142857143,0.002132032211163583
47.542857142857144,0.00221274630642219
47.65714285714286,0.002309545655881676
47.77142857142857,0.002408927504689854
47.885714285714286,0.0024872321710691274
48.0,0.0025236845401011843
48.114285714285714,0.00251646915935704
48.22857142857143,0.0024865707896417778
48.34285714285714,0.00246531746124034
48.457142857142856,0.0024757813643980758
48.57142857142857,0.0025235835133034772
48.68571428571428,0.0026065139709709924
48.8,0.0027405548158788585
48.91428571428571,0.003001698357853983
49.028571428571425,0.0036274576817821366
49.14285714285714,0.0053158634465561225
49.25714285714285,0.009916255237620098
49.37142857142857,0.021460145519500748
49.48571428571429,0.04662576549043674
49.6,0.09266652015329685
49.714285714285715,0.16143616455838947
49.82857142857143,0.24218171820462236
49.94285714285714,0.31056331613194094
50.05714285714286,0.33944559448653766
50.17142857142857,0.31602425103432197
50.285714285714285,0.2508628687613321
50.4,0.1703158503923216
50.51428571428571,0.09958884121133604
50.628571428571426,0.05095582894779286
50.74285714285714,0.02367415309061744
50.857142857142854,0.010832752407578562
50.97142857142857,0.005577368079285371
51.08571428571428,0.0035653250531901787
51.199999999999996,0.0027278019308457466
51.31428571428571,0.0022883237254747524
51.42857142857142,0.0020230213214760934
51.542857142857144,0.0018869629348597463
51.65714285714286,0.0018612566640678141
51.77142857142857,0.0019055582440976443
51.885714285714286,0.001962280448052928
52.0,0.0019817077670033485
52.114285714285714,0.0019431427828674823
52.22857142857143,0.0018589020656707626
52.34285714285714,0.0017628442180489183
52.457142857142856,0.0016917348232788677
52.57142857142857,0.0016666598932393191
52.68571428571428,0.001681415165053206
52.8,0.0017054819744209706
52.91428571428571,0.0017029563514359383
53.028571428571425,0.0016559898369621334
53.14285714285714,0.001575431994220106
53.25714285714285,0.0014914376873389375
53.37142857142857,0.0014329774853650166
53.48571428571429,0.0014116763964459678
53.6,0.0014199812314386554
53.714285714285715,0.001443927581818875
53.82857142857143,0.0014812248089505317
53.94285714285714,0.0015496035636222904
54.05714285714286,0.0016752822812682892
54.17142857142857,0.0018674693473984573
54.285714285714285,0.0020993042306323767
54.4,0.0023136592007112116
54.51428571428571,0.00245274915371568
54.628571428571426,0.0024900132404149975
54.74285714285714,0.002441022238363312
54.857142857142854,0.0023490129958125333
54.97142857142857,0.0022604606012584646
55.08571428571428,0.0022083918390884043
