Frequency,PSD
6.0,0.42869364443694824
6.08,0.42185818135533953
6.16,0.4123812786276004
6.24,0.40586099907380935
6.32,0.4056793644297149
6.4,0.41098730846611
6.48,0.41746516968360314
6.5600000000000005,0.4200887204583845
6.640000000000001,0.4159385464531947
6.72,0.4053718434669267
6.8,0.39124753040687343
6.88,0.37725231670321535
6.96,0.36672014793204377
7.04,0.3624966809550034
7.12,0.36717466703149737
7.2,0.38260818502227967
7.28,0.408515886386706
7.36,0.44134927004994134
7.44,0.47488343985685744
7.5200000000000005,0.5026484296676168
7.6000000000000005,0.5206447371574171
7.68,0.5285408541606095
7.76,0.5289290792197389
7.84,0.5256824409416363
7.92,0.5226319093770316
8.0,0.5228970586141438
8.08,0.5284748084042084
8.16,0.5398241138723748
8.24,0.5557741906719756
8.32,0.5742201803159261
8.4,0.593381857245503
8.48,0.6126084647002811
8.56,0.6319239867315365
8.64,0.6507428986901619
8.72,0.6670833361797552
8.8,0.6780854757389274
8.88,0.6813962415840722
8.96,0.6765166313348535
9.040000000000001,0.6657490262088002
9.120000000000001,0.6546885668978708
9.200000000000001,0.651603105045174
9.28,0.6646738772976736
9.36,0.6973665353018831
9.44,0.7445942915852941
9.52,0.7932547788613159
9.6,0.8283211494467307
9.68,0.8412612873252806
9.76,0.8349504728290685
9.84,0.821251428069423
9.92,0.8129097652245432
10.0,0.8158474312534447
10.08,0.8274424252444462
10.16,0.8413241449834052
10.24,0.8539634514272337
10.32,0.8673350740284613
10.4,0.8857599061246
10.48,0.9101186197541591
10.56,0.9346490323381615
10.64,0.9491866748349773
10.72,0.9453353085723784
10.8,0.9222095013652511
10.88,0.8879434165363831
10.96,0.8562570843108047
11.040000000000001,0.8404643709720492
11.120000000000001,0.8482637762867645
11.200000000000001,0.8793848302931653
11.28,0.9262874483043695
11.36,0.9770417897696322
11.44,1.019250657136239
11.52,1.0437646160804532
11.6,1.0469426301472844
11.68,1.0307690269819623
11.76,1.0011363433922396
11.84,0.9652773473145947
11.92,0.9292939155183373
12.0,0.8964444065466348
12.08,0.8667439263785872
12.16,0.8381571035214608
12.24,0.8087995326602071
12.32,0.778683612895798
12.4,0.7497684314323616
12.48,0.7244964456320817
12.56,0.7042520140958137
12.64,0.6889497174539816
12.72,0.6776010437059204
12.8,0.668822275291717
12.88,0.6607737177676596
12.96,0.6511383492761156
13.040000000000001,0.6379339491512583
13.120000000000001,0.620884920201545
13.200000000000001,0.6020491860403423
13.280000000000001,0.5847478025209546
13.36,0.5713489123856015
13.44,0.5615441395105538
13.52,0.5523349375226505
13.6,0.5395975825314441
13.68,0.5201966341114984
13.76,0.4936761901958844
13.84,0.4629726098703427
13.92,0.4338342206041965
14.0,0.4129001608469093
14.08,0.40497214973641366
14.16,0.4106526593307097
14.24,0.4256558878539036
14.32,0.4424189459502743
14.4,0.453387806977629
14.48,0.45427672203680297
14.56,0.4455383913182956
14.64,0.43139663606934386
14.72,0.4172516736983807
14.8,0.4069872099537768
14.88,0.40140112078802026
14.96,0.39822068279902395
15.040000000000001,0.3935098439346573
15.120000000000001,0.38377488349171685
15.200000000000001,0.3677062344053853
15.280000000000001,0.3466082844242218
15.36,0.32340344451898567
15.44,0.3010944369536115
15.52,0.281772653727646
15.6,0.2664955277188243
15.68,0.25553521626942655
15.76,0.24849364430326035
15.84,0.24435413734235611
15.92,0.24180964028898044
16.0,0.23984861076456573
16.080000000000002,0.2381434305933764
16.16,0.23686914819711846
16.240000000000002,0.23610640459514093
16.32,0.23538925815278114
16.4,0.2338419997163672
16.48,0.23082053485658602
16.56,0.2265109367437207
16.64,0.22195020041740532
16.72,0.21841059065076668
16.8,0.21661013215568492
16.88,0.2163280427086195
16.96,0.21663818745558755
17.04,0.21647800216259394
17.12,0.21508688687205418
17.2,0.2120931440150289
17.28,0.20739824997297693
17.36,0.20111169906877044
17.44,0.19357761378236124
17.52,0.1853251105404672
17.6,0.17684612944762235
17.68,0.1683516304020915
17.76,0.15975098074455404
17.84,0.15091305152439563
17.92,0.14200637390376966
18.0,0.13364326890106978
18.080000000000002,0.1267112714716945
18.16,0.12199927870287275
18.240000000000002,0.11984101570627823
18.32,0.11995638805847006
18.400000000000002,0.12154088160684466
18.48,0.12353301158430915
18.56,0.12493440368766047
18.64,0.12506435813153177
18.72,0.12367530225031655
18.8,0.12091434179311078
18.88,0.11716877939516851
18.96,0.11286532117979306
19.04,0.10830511232208052
19.12,0.10361424761183677
19.2,0.09885396401240476
19.28,0.09424358800038585
19.36,0.09033587543856887
19.44,0.08795098193935315
19.52,0.08780279509796256
19.6,0.08999146407818126
19.68,0.09371427050545411
19.76,0.09748720293435263
19.84,0.09984562945121087
19.92,0.10010476351322238
20.0,0.09863879329818838
20.080000000000002,0.09645739098672407
20.16,0.0944041706262626
20.240000000000002,0.0925984096752096
20.32,0.09051398460100013
20.400000000000002,0.08755766089712885
20.48,0.08365691039463581
20.56,0.07945140151647287
20.64,0.07603212112512087
20.72,0.07444800264611856
20.8,0.0752420094571873
20.88,0.07817845004366204
20.96,0.08223424626726777
21.04,0.08588315074399988
21.12,0.08762898214856242
21.2,0.0866052125735027
21.28,0.08294728856009126
21.36,0.07770484126277104
21.44,0.07231636267411921
21.52,0.06795165948971814
21.6,0.06510775397602468
21.68,0.06364363383098218
21.76,0.06312027200788857
21.84,0.06313859177871128
21.92,0.06346220732012132
22.0,0.06394821052695442
22.080000000000002,0.06445482773829571
22.16,0.06484429894569424
22.240000000000002,0.0650537757491832
22.32,0.06513137873562799
22.400000000000002,0.06518164601818345
22.48,0.06525686340640952
22.56,0.0652761383798427
22.64,0.0650323889910066
22.72,0.06429255460962235
22.8,0.06294330788004712
22.88,0.06110257427497608
22.96,0.059119512867168045
23.04,0.05743260620052744
23.12,0.056340786855990144
23.2,0.0558225867915369
23.28,0.05554020436140637
23.36,0.05505140879276536
23.44,0.05408923267805627
23.52,0.05270059845211222
23.6,0.051145367695148686
23.68,0.04966461279837144
23.76,0.048335103953725575
23.84,0.04712157898465806
23.92,0.04602602459181002
24.0,0.045141976043318086
24.080000000000002,0.044545915811600716
24.16,0.04414972958239417
24.240000000000002,0.04368534275639924
24.32,0.04285720262162457
24.400000000000002,0.041537562910403426
24.48,0.03985523955111435
24.560000000000002,0.03814026899833226
24.64,0.03679768102221846
24.72,0.036185682136631155
24.8,0.0365056689257403
24.88,0.03769340783783401
24.96,0.03936461360952392
25.04,0.04090813255765595
25.12,0.04173806177879026
25.2,0.041571312493533186
25.28,0.04054692077251367
25.36,0.03911188441416058
25.44,0.037762598342144085
25.52,0.0368073081277073
25.6,0.03626730517685883
25.68,0.035935803299547785
25.76,0.03553998121062458
25.84,0.0349192598193571
25.92,0.03412821056850572
26.0,0.033402510999316216
26.080000000000002,0.03300279168377529
26.16,0.03303896102470224
26.240000000000002,0.03340098305955895
26.32,0.033843849338811766
26.400000000000002,0.03415135395768893
26.48,0.034242150494396675
26.560000000000002,0.03413883704984506
26.64,0.033846817023451194
26.72,0.033270761736916225
26.8,0.032258226956095946
26.88,0.0307382972139814
26.96,0.0288322419773964
27.04,0.026836209493619916
27.12,0.02508612254288219
27.2,0.02380633775500206
27.28,0.02303888972157648
27.36,0.022671393043280058
27.44,0.022513808026320768
27.52,0.022369922685289922
27.6,0.022085674797278732
27.68,0.021580464639497282
27.76,0.020861438628876693
27.84,0.02000959431348925
27.92,0.01913621340542859
28.0,0.018332020502541593
28.080000000000002,0.01764200455994004
28.16,0.01708029507953357
28.240000000000002,0.016664734277076498
28.32,0.0164310138834362
28.400000000000002,0.01640440327598931
28.48,0.01655233383262658
28.560000000000002,0.016769769800507393
28.64,0.016925805523934384
28.72,0.016941110096350135
28.8,0.01683077086790912
28.88,0.016674702687163617
28.96,0.016543214088098505
29.04,0.016445164189211808
29.12,0.01634278083710018
29.2,0.016214170597300973
29.28,0.016101300292764305
29.36,0.016095914892358162
29.44,0.016271844339220392
29.52,0.01661787809335913
29.6,0.01702368941368236
29.68,0.01732891044612559
29.76,0.01740027414966719
29.84,0.017187688736396083
29.92,0.01673200469468113
30.0,0.016131908068201802
30.080000000000002,0.01549720870746553
30.16,0.01491306487491571
30.240000000000002,0.014427142780228904
30.32,0.014061264621971555
30.400000000000002,0.013839272949990147
30.48,0.013811078556572284
30.560000000000002,0.01404899495475915
30.64,0.014607916133536106
30.72,0.015468705062022064
30.8,0.016501754464031754
30.88,0.017480308465661672
30.96,0.01814664637192691
31.04,0.018305382665250867
31.12,0.01790131846733807
31.2,0.017042903042769557
31.28,0.015957202326288174
31.36,0.014897363260781157
31.44,0.014048947162137206
31.52,0.013480899584238136
31.6,0.01315948658896001
31.68,0.013005437936097156
31.76,0.012950406324239308
31.84,0.012956164119925215
31.92,0.012993901912379497
32.0,0.01301424568225464
32.08,0.012943202698930541
32.160000000000004,0.012712769933958768
32.24,0.012302804053420813
32.32,0.011760891523326687
32.4,0.01118457535919039
32.480000000000004,0.010677681539576255
32.56,0.010308455664242783
32.64,0.010093148424478844
32.72,0.01001013032118378
32.8,0.010029781895062654
32.88,0.010137357360503155
32.96,0.010334468794608214
33.04,0.010621847491077523
33.12,0.010977728509025377
33.2,0.011346046348755544
33.28,0.011641703809273497
33.36,0.011773400406030452
33.44,0.01167798907628177
33.52,0.011352478542153674
33.6,0.010865702979413302
33.68,0.010338644097768806
33.76,0.009898681963730428
33.84,0.009627830244781012
33.92,0.009529263069213914
34.0,0.009529127249068497
34.08,0.009515266802014187
34.160000000000004,0.009395991508616594
34.24,0.00914862010891119
34.32,0.008829800178401721
34.4,0.008541119201630134
34.480000000000004,0.00837227851611257
34.56,0.00835862780334646
34.64,0.008477825390270192
34.72,0.008681035796468964
34.800000000000004,0.008930707333064504
34.88,0.009216599577424947
34.96,0.009541664454064194
35.04,0.009892486193488176
35.12,0.010219412878451361
35.2,0.01044438615033644
35.28,0.010495032414934954
35.36,0.010343580623146525
35.44,0.010022852572476232
35.52,0.009606342834101424
35.6,0.009166112846905132
35.68,0.008739173316700962
35.76,0.008325184924129352
35.84,0.007912510440867396
35.92,0.007508346651666668
36.0,0.007148439877654214
36.08,0.006879752595473954
36.160000000000004,0.006729325970290681
36.24,0.0066811344675019625
36.32,0.006677052965822096
36.4,0.006643024838723361
36.480000000000004,0.006525748387786582
36.56,0.00631826482207027
36.64,0.0060600025788308184
36.72,0.005813799692318462
36.800000000000004,0.00563703807370021
36.88,0.0055652205559348945
36.96,0.005613195718483604
37.04,0.005783175159210362
37.12,0.006064959890205319
37.2,0.0064265338377752414
37.28,0.006808647772710458
37.36,0.007137016846862563
37.44,0.007349107664277656
37.52,0.007417358196125512
37.6,0.0073531666462830925
37.68,0.007192296863035309
37.76,0.006975575406441593
37.84,0.006738142762174933
37.92,0.006509657165635844
38.0,0.006317744298738517
38.08,0.006185705674748453
38.160000000000004,0.006122973589716602
38.24,0.006115961348122554
38.32,0.0061295110899607696
38.4,0.006122354854067497
38.480000000000004,0.0060691643186817894
38.56,0.005975675590302871
38.64,0.005876771310889873
38.72,0.00581745194479183
38.800000000000004,0.0058263290597913376
38.88,0.005895440492591922
38.96,0.005977930010108712
39.04,0.006007683438855357
39.12,0.005933803315175553
39.2,0.005751744550801413
39.28,0.005510324518556346
39.36,0.005286355296846082
39.44,0.005141135454478224
39.52,0.005088070266308848
39.6,0.005093535864731737
39.68,0.005107705329139959
39.76,0.005099607391577351
39.84,0.005070269234725634
39.92,0.005038404373444278
40.0,0.00501556583530588
40.08,0.004993413756586199
40.160000000000004,0.004952383778779551
40.24,0.004881609346457899
40.32,0.004790627848153706
40.4,0.0047014812859540595
40.480000000000004,0.0046283194285065814
40.56,0.004563883624208098
40.64,0.00448626518136477
40.72,0.004380367381174137
40.800000000000004,0.0042550790565615325
40.88,0.004141906414021133
40.96,0.004077397426676221
41.04,0.004083243911071001
41.12,0.004155796875395272
41.2,0.00426718839001341
41.28,0.004374081643366296
41.36,0.004430296734685962
41.44,0.004401315268439468
41.52,0.004277646733908697
41.6,0.004081660095906314
41.68,0.0038629721220390144
41.76,0.0036822668841414484
41.84,0.0035895249025619377
41.92,0.003605815901698388
42.0,0.003716273218115837
42.08,0.0038770490895409775
42.160000000000004,0.004033468296808047
42.24,0.00414204477221433
42.32,0.004186991274657331
42.4,0.004183895137017395
42.480000000000004,0.004169071610755043
42.56,0.004179576261376114
42.64,0.004232840010735565
42.72,0.004315784178442919
42.800000000000004,0.004390577633515314
42.88,0.004416061543888548
42.96,0.004372541137201268
43.04,0.0042729224844608804
43.12,0.004152764394555453
43.2,0.0040487940157881265
43.28,0.003983092032191766
43.36,0.003961378374111113
43.44,0.003979540336726565
43.52,0.0040280283916648875
43.6,0.004091253747258421
43.68,0.004147605927932252
43.76,0.00417526314937358
43.84,0.004161507798108623
43.92,0.004108297272898825
44.0,0.004029564574868465
44.08,0.0039422705493087976
44.160000000000004,0.0038570777788416236
44.24,0.003773716768129577
44.32,0.003682973071870675
44.4,0.003574111336823345
44.480000000000004,0.003444350588821003
44.56,0.0033059850439982625
44.64,0.0031871454141216456
44.72,0.003124239344276091
44.800000000000004,0.003147674943858843
44.88,0.0032663621842188555
44.96,0.0034584492733367306
45.04,0.0036739762466849596
45.12,0.003849897501741169
45.2,0.003931794161559704
45.28,0.003892946066577736
45.36,0.003742374824042523
45.44,0.003518562037833819
45.52,0.0032721872971390974
45.6,0.003046243770970826
45.68,0.0028630067255390815
45.76,0.002723740415406413
45.84,0.0026197046542082367
45.92,0.0025456527950080098
46.0,0.002505322730216534
46.08,0.0025052012836771637
46.160000000000004,0.0025430860262465327
46.24,0.0026023480216460886
46.32,0.0026574371735614034
46.4,0.002686582882577178
46.480000000000004,0.0026823013209663
46.56,0.002652749761648046
46.64,0.0026142127038796675
46.72,0.0025810390391258625
46.800000000000004,0.002559673972393761
46.88,0.0025486880159581587
46.96,0.0025420884821129863
47.04,0.002532804037574197
47.12,0.002515614957246306
47.2,0.00248972483679135
47.28,0.0024597402789365216
47.36,0.0024333189923969427
47.44,0.0024162631011452086
47.52,0.0024087672548133744
47.6,0.002405946826774027
47.68,0.0024018242328463675
47.76,0.0023928810359598145
47.84,0.002378315105862304
47.92,0.0023579474114682544
48.0,0.00233114836847138
48.08,0.0022986641024652817
48.160000000000004,0.0022654901447734417
48.24,0.0022410955249657465
48.32,0.002235400010256027
48.4,0.0022526497156376453
48.480000000000004,0.0022870572404915662
48.56,0.002323017028734789
48.64,0.0023406549911951513
48.72,0.002325205940736652
48.800000000000004,0.0022758748385751787
48.88,0.0022081872932550733
48.96,0.0021467473846713964
49.04,0.0021123109599386486
49.120000000000005,0.002112018298675005
49.2,0.0021391793224602614
49.28,0.0021811633248582443
49.36,0.0022279379962216947
49.44,0.0022746025249798657
49.52,0.0023175559145419827
49.6,0.00235003333260049
49.68,0.0023631563278079387
49.76,0.002352681028213628
49.84,0.0023249243971892528
49.92,0.0022951045583628066
50.0,0.0022782724938202187
50.08,0.002279861093764657
50.160000000000004,0.0022926820447344287
50.24,0.002301240125484414
50.32,0.0022893530668841554
50.4,0.0022469633047789324
50.480000000000004,0.00217427394239118
50.56,0.0020824049106039216
50.64,0.001989783982084062
50.72,0.0019147910829488135
50.800000000000004,0.0018679168839541571
50.88,0.0018480451532808424
50.96,0.001845192699262959
51.04,0.001847583783257875
51.120000000000005,0.0018481439312913878
51.2,0.0018466231582497938
51.28,0.0018471048168969273
51.36,0.0018533677735588748
51.44,0.0018650071850442353
51.52,0.0018764236846058324
51.6,0.0018796755198322024
51.68,0.0018702441567280785
51.76,0.0018522270437922213
51.84,0.0018387105606571669
51.92,0.001845871979267652
52.0,0.0018839238206661262
52.08,0.0019505325913868072
52.160000000000004,0.002030896081506202
52.24,0.0021044752181116275
52.32,0.0021541691715670514
52.4,0.0021721157112875294
52.480000000000004,0.0021587541886553593
52.56,0.0021171360670034587
52.64,0.0020485436486837507
52.72,0.0019541274510907845
52.800000000000004,0.001840971275581596
52.88,0.001725700888954504
52.96,0.0016303621279787186
53.04,0.0015727431001275353
53.120000000000005,0.001558863485750057
53.2,0.001583073595825173
53.28,0.001633890135829862
53.36,0.0016993968064473852
53.44,0.0017685590022489036
53.52,0.0018300994732929707
53.6,0.0018726575075272284
53.68,0.0018876653126415066
53.76,0.0018731627384453828
53.84,0.001835703311643805
53.92,0.0017886978095986504
54.0,0.0017475842523584297
54.08,0.0017239667069414346
54.160000000000004,0.001721594232435503
54.24,0.0017361842495432634
54.32,0.0017587962445309295
54.4,0.001780216268469643
54.480000000000004,0.001793591621366893
54.56,0.001794703060250582
54.64,0.0017815630225370227
54.72,0.0017549432393676207
54.800000000000004,0.0017192901738741467
54.88,0.0016822196566531528
54.96,0.0016521112339400817
55.04,0.001635426140085272
