Frequency,PSD
6.0,0.3832697768161211
6.08,0.38492476731910447
6.16,0.3880792650053094
6.24,0.3924499927331897
6.32,0.39767624004441127
6.4,0.40338343681209643
6.48,0.4092474288649828
6.5600000000000005,0.415046237375487
6.640000000000001,0.42068840002818886
6.72,0.4262121805563674
6.8,0.4317567671222491
6.88,0.4375130711625935
6.96,0.44366592848934117
7.04,0.4503403138157621
7.12,0.4575618275653554
7.2,0.46523747992562725
7.28,0.4731583021902245
7.36,0.48102176556435206
7.44,0.4884697932447996
7.5200000000000005,0.4951370343211054
7.6000000000000005,0.500703461405084
7.68,0.5049448013475883
7.76,0.5077736871933504
7.84,0.5092640040249431
7.92,0.5096513362153117
8.0,0.5093045812967039
8.08,0.5086684045868705
8.16,0.5081832371645739
8.24,0.5081975813001798
8.32,0.508893664351942
8.4,0.5102485616981789
8.48,0.512046423615189
8.56,0.5139437654251708
8.64,0.5155727342044384
8.72,0.5166530975946031
8.8,0.517078535479421
8.88,0.5169496991978313
8.96,0.5165435957966715
9.040000000000001,0.5162298663397917
9.120000000000001,0.5163613536673046
9.200000000000001,0.5171726892582411
9.28,0.5187147529817128
9.36,0.5208382240789567
9.44,0.5232227863663648
9.52,0.5254365854309008
9.6,0.5270069004931047
9.68,0.5274869866365287
9.76,0.526511611971746
9.84,0.5238401078503022
9.92,0.5193877680844914
10.0,0.513244374392094
10.08,0.505675338738752
10.16,0.4970999584186209
10.24,0.48804456749517333
10.32,0.47907521639487666
10.4,0.4707218972049154
10.48,0.46341060237065523
10.56,0.4574183103373184
10.64,0.4528594512365853
10.72,0.44970297806131065
10.8,0.447810450570898
10.88,0.4469806892147872
10.96,0.44698709421074856
11.040000000000001,0.44759911708849714
11.120000000000001,0.44858739274293014
11.200000000000001,0.4497196254850224
11.28,0.4507585934100209
11.36,0.4514728351093773
11.44,0.45166472931878043
11.52,0.4512117254690351
11.6,0.45010782754984546
11.68,0.4484877804402301
11.76,0.44661831589751044
11.84,0.444849495867077
11.92,0.44353214466280577
12.0,0.4429201298723283
12.08,0.44308404814490987
12.16,0.44386244163277494
12.24,0.44486760304849077
12.32,0.4455479877260682
12.4,0.44529305795735913
12.48,0.4435543008369367
12.56,0.4399520403209519
12.64,0.4343426232110672
12.72,0.42683264230430806
12.8,0.4177418323267822
12.88,0.4075292395695025
12.96,0.39670447854145563
13.040000000000001,0.38574600508287116
13.120000000000001,0.37504259543068275
13.200000000000001,0.3648655520310739
13.280000000000001,0.3553707192856706
13.36,0.3466233260970131
13.44,0.3386356184539844
13.52,0.33140671257682575
13.6,0.32495525767752487
13.68,0.3193378151213767
13.76,0.3146492051380484
13.84,0.31100533049690193
13.92,0.30851359244776533
14.0,0.30723980618849644
14.08,0.30718210560044085
14.16,0.30826075208863846
14.24,0.3103281288325209
14.32,0.3131968062502809
14.4,0.3166774919056339
14.48,0.3206150191071872
14.56,0.3249105896706932
14.64,0.32952233156409727
14.72,0.3344427059859561
14.8,0.339658458657689
14.88,0.3451045544467768
14.96,0.3506261940564942
15.040000000000001,0.3559617654205833
15.120000000000001,0.3607546423039528
15.200000000000001,0.36459431021215105
15.280000000000001,0.3670793060207677
15.36,0.36788809853102444
15.44,0.3668411688444033
15.52,0.36393909749735714
15.6,0.35936706609165847
15.68,0.3534642476521046
15.76,0.34666480332197996
15.84,0.3394234205399197
15.92,0.3321411151119993
16.0,0.3251060972419296
16.080000000000002,0.31846056291876357
16.16,0.3121985242581799
16.240000000000002,0.30619350008208174
16.32,0.3002491437480529
16.4,0.2941616033411377
16.48,0.28778035597032636
16.56,0.28105493729461184
16.64,0.2740583873070148
16.72,0.2669836262973951
16.8,0.2601150005083046
16.88,0.25378232065867096
16.96,0.24830763817598028
17.04,0.2439553128090441
17.12,0.2408939878667341
17.2,0.2391757897820871
17.28,0.23873437622108645
17.36,0.2394001086070543
17.44,0.2409280428056068
17.52,0.24303281845772162
17.6,0.24542399055718897
17.68,0.2478359345139351
17.76,0.2500480929482654
17.84,0.25189373357915157
17.92,0.2532580407040266
18.0,0.2540686255215971
18.080000000000002,0.254282826035121
18.16,0.2538761489567792
18.240000000000002,0.2528349582202676
18.32,0.25115451979501313
18.400000000000002,0.24884150574531608
18.48,0.24591874796766877
18.56,0.24242979130922937
18.64,0.23844150904064734
18.72,0.23404417394998958
18.8,0.22934927452743506
18.88,0.2244856360104391
18.96,0.2195941319723235
19.04,0.21482091492862543
19.12,0.21030914130554612
19.2,0.20618974970293333
19.28,0.2025726148348349
19.36,0.19953972490971883
19.44,0.19714149379947046
19.52,0.19539605981279978
19.6,0.1942901427961664
19.68,0.19377958961911418
19.76,0.19378857631418162
19.84,0.19420821451413578
19.92,0.19489702334672288
20.0,0.1956862534676704
20.080000000000002,0.19639182506571481
20.16,0.1968320514320798
20.240000000000002,0.1968475529366406
20.32,0.19631821235435234
20.400000000000002,0.19517254627666958
20.48,0.19338736154461944
20.56,0.19097900787845817
20.64,0.18799049184313357
20.72,0.1844799901276359
20.8,0.18051542431874623
20.88,0.1761771071663506
20.96,0.17156702294942472
21.04,0.16682025035391876
21.12,0.16211239035322775
21.2,0.1576572106727113
21.28,0.15369109534011205
21.36,0.1504447446617223
21.44,0.1481068550940084
21.52,0.14678788512941127
21.6,0.14649325187505188
21.68,0.14711374220833026
21.76,0.14843682112524684
21.84,0.15017708380294117
21.92,0.15201909449959675
22.0,0.1536629410002054
22.080000000000002,0.15486288888193472
22.16,0.15545231437729326
22.240000000000002,0.1553524361324069
22.32,0.15456665262365357
22.400000000000002,0.15316517863898066
22.48,0.151265543603043
22.56,0.1490135713732384
22.64,0.14656748224420837
22.72,0.14408568021356463
22.8,0.14171734431272032
22.88,0.13959446611747642
22.96,0.1378243904954105
23.04,0.13648284692835877
23.12,0.13560839377858322
23.2,0.13519967456090076
23.28,0.13521665477045944
23.36,0.13558614049653608
23.44,0.13621075147737294
23.52,0.13697965281652758
23.6,0.13777915392508971
23.68,0.13850183854786974
23.76,0.13905387780261844
23.84,0.13936104246593073
23.92,0.1393741805493431
24.0,0.13907441627637052
24.080000000000002,0.1384773467171586
24.16,0.1376346322491803
24.240000000000002,0.13663113857332235
24.32,0.135576425103152
24.400000000000002,0.13459071317480534
24.48,0.1337870404329515
24.560000000000002,0.1332525899259783
24.64,0.13303280054412692
24.72,0.13312168049630255
24.8,0.13346081072574661
24.88,0.13394800060099235
24.96,0.1344546689269036
25.04,0.13484908106039478
25.12,0.13502100320338017
25.2,0.134902623639449
25.28,0.13448111489495007
25.36,0.13380001626852522
25.44,0.13294927858618424
25.52,0.13204651234285686
25.6,0.13121381120626383
25.68,0.1305549139568173
25.76,0.1301364824324121
25.84,0.12997558934511605
25.92,0.13003404988950962
26.0,0.13021962210211918
26.080000000000002,0.1303942903516373
26.16,0.13039013099860944
26.240000000000002,0.13003275020632812
26.32,0.1291705440203971
26.400000000000002,0.12770548396955886
26.48,0.1256189547551707
26.560000000000002,0.12298569308542834
26.64,0.11997081909486085
26.72,0.1168089544518678
26.8,0.11376914168577629
26.88,0.11111300634244015
26.96,0.10905504519078014
27.04,0.10773274977855832
27.12,0.10719116499511969
27.2,0.10738271424724409
27.28,0.10817996063369133
27.36,0.10939717591303819
27.44,0.11081623589044605
27.52,0.11221300780053332
27.6,0.11338141275432077
27.68,0.11415324602447417
27.76,0.11441244148432331
27.84,0.11410287660263685
27.92,0.11322925055938016
28.0,0.11185118209365347
28.080000000000002,0.11007144784759683
28.16,0.10802004976406412
28.240000000000002,0.10583635422361246
28.32,0.10365175126223877
28.400000000000002,0.10157512396636031
28.48,0.09968296366229744
28.560000000000002,0.09801529220966507
28.64,0.09657770080394786
28.72,0.09534882087858529
28.8,0.0942915106336567
28.88,0.09336519246744016
28.96,0.09253641426955297
29.04,0.09178508124280123
29.12,0.09110495411296202
29.2,0.09049867745506847
29.28,0.08996928874137251
29.36,0.08951130179269498
29.44,0.08910465272900633
29.52,0.08871395260305565
29.6,0.08829386219245833
29.68,0.08779948919688184
29.76,0.08719908003315215
29.84,0.08648541478503707
29.92,0.08568246926315615
30.0,0.08484505423410152
30.080000000000002,0.08405097581772462
30.16,0.08338727930024903
30.240000000000002,0.08293376666932749
30.32,0.08274773213794025
30.400000000000002,0.08285349860351324
30.48,0.08323895602676405
30.560000000000002,0.08385932461409232
30.64,0.08464642768995351
30.72,0.08552050266603119
30.8,0.0864014156203611
30.88,0.08721708142278446
30.96,0.08790849108998683
31.04,0.08843228344102379
31.12,0.08876255249322834
31.2,0.08889318785374127
31.28,0.08884069553026033
31.36,0.08864585143942871
31.44,0.0883716163314238
31.52,0.0880951621413105
31.6,0.08789368532476055
31.68,0.08782626687183556
31.76,0.0879162862164603
31.84,0.08813975515683829
31.92,0.08842389216878599
32.0,0.0886575768558745
32.08,0.08871194896842398
32.160000000000004,0.08846653978293242
32.24,0.08783488403582831
32.32,0.08678388809524608
32.4,0.08534299830891641
32.480000000000004,0.08360168170538827
32.56,0.08169611830899604
32.64,0.07978779363009116
32.72,0.0780377218976334
32.8,0.07658043910961017
32.88,0.0755018531059448
32.96,0.07482459442644601
33.04,0.07450361075550808
33.12,0.07443329366583412
33.2,0.07446545774683391
33.28,0.07443529758822938
33.36,0.07419055312999298
33.44,0.07361812427799003
33.52,0.07266273349303125
33.6,0.07133399617578999
33.68,0.06970100300260101
33.76,0.067876455305002
33.84,0.06599463967380766
33.92,0.06418844064878197
34.0,0.06257002154500325
34.08,0.06121813395112237
34.160000000000004,0.06017296394634636
34.24,0.05943771110473678
34.32,0.058985149060549316
34.4,0.05876722951207178
34.480000000000004,0.05872603260936368
34.56,0.05880463271008646
34.64,0.05895652468943534
34.72,0.05915222599566562
34.800000000000004,0.05938182075010762
34.88,0.05965280333652753
34.96,0.05998362098848464
35.04,0.06039450372369122
35.12,0.060898019179030996
35.2,0.0614918893708882
35.28,0.06215585682903267
35.36,0.06285307367878043
35.44,0.06353514552425979
35.52,0.06414911503557161
35.6,0.06464457406825923
35.68,0.06497963320311209
35.76,0.06512526191025404
35.84,0.06506810323938307
35.92,0.06481201599998235
36.0,0.0643783591046186
36.08,0.06380469961365491
36.160000000000004,0.0631415350913764
36.24,0.06244694565262784
36.32,0.06177973527017723
36.4,0.06119226963189146
36.480000000000004,0.06072450763691194
36.56,0.060400449704110085
36.64,0.060227459150759804
36.72,0.060197977421420384
36.800000000000004,0.06029247222687367
36.88,0.06048233880364022
36.96,0.060731954831535706
37.04,0.06099990787617417
37.12,0.06124013936377856
37.2,0.06140399816317414
37.28,0.06144383265827349
37.36,0.061317953016857246
37.44,0.06099596939400966
37.52,0.06046307593788449
37.6,0.059722025823096395
37.68,0.058792248817978905
37.76,0.05770647238270221
37.84,0.05650591859992429
37.92,0.055235382946888886
38.0,0.053939217979414734
38.08,0.05265863926248677
38.160000000000004,0.05143015525160219
38.24,0.05028457564238345
38.32,0.04924609798674735
38.4,0.04833134033288695
38.480000000000004,0.04754866089101033
38.56,0.04689842231340217
38.64,0.046374825732762644
38.72,0.04596951642383776
38.800000000000004,0.04567647707174383
38.88,0.045497027653598185
38.96,0.04544332420075062
39.04,0.045538799277273695
39.12,0.045814571358800946
39.2,0.04630185124980363
39.28,0.04702153438456792
39.36,0.04797316639390349
39.44,0.049126007839545446
39.52,0.05041480849404563
39.6,0.05174209638012069
39.68,0.05298743533380647
39.76,0.05402250949609924
39.84,0.05472945127065604
39.92,0.05501893104287565
40.0,0.05484443749320306
40.08,0.05420994307145896
40.160000000000004,0.05316956954611527
40.24,0.05181955431638997
40.32,0.050284320607650076
40.4,0.048699414225107124
40.480000000000004,0.047194322514927334
40.56,0.04587779310047495
40.64,0.04482743666074823
40.72,0.04408440354116304
40.800000000000004,0.04365300721407735
40.88,0.043504482427134394
40.96,0.04358367749950073
41.04,0.043817385624628835
41.12,0.044123167836348516
41.2,0.04441782130344948
41.28,0.044624984461699976
41.36,0.044681626328593724
41.44,0.04454326032673496
41.52,0.04418764967040429
41.6,0.04361661888777756
41.68,0.04285550217336482
41.76,0.04194988643839183
41.84,0.04095970726557552
41.92,0.03995136297061931
42.0,0.03898913477694991
42.08,0.03812758593396418
42.160000000000004,0.037406542432393726
42.24,0.03684965461569086
42.32,0.03646652561652715
42.4,0.03625728268162789
42.480000000000004,0.03621766967709876
42.56,0.036342601014257236
42.64,0.036626766130960234
42.72,0.037062126326585544
42.800000000000004,0.03763354329546942
42.88,0.03831475102784463
42.96,0.039066984885461266
43.04,0.03984170039951454
43.12,0.04058724557905284
43.2,0.04125770039658408
43.28,0.04182104022901556
43.36,0.0422637769188082
43.44,0.04259032956237866
43.52,0.042817185473749825
43.6,0.04296375514123575
43.68,0.04304301466658479
43.76,0.04305512950073736
43.84,0.042986238633919156
43.92,0.04281282585483037
44.0,0.04251023839496379
44.08,0.04206257072582413
44.160000000000004,0.04147074197528979
44.24,0.04075624647768069
44.32,0.03995948287955969
44.4,0.039133258123968964
44.480000000000004,0.038333449174871845
44.56,0.03760945640220169
44.64,0.036996848134770596
44.72,0.036513644753350866
44.800000000000004,0.036160428881922044
44.88,0.035923370638143326
44.96,0.03577868063453567
45.04,0.03569706064788812
45.12,0.03564726341783561
45.2,0.035598582848855406
45.28,0.03552264578624896
45.36,0.035395066175936074
45.44,0.03519734338930515
45.52,0.03491899207978694
45.6,0.034559500298025826
45.68,0.03412950478059729
45.76,0.0336506204592977
45.84,0.03315362764679938
45.92,0.032675099147971245
46.0,0.032252922932559214
46.08,0.0319214532947326
46.160000000000004,0.03170715103369805
46.24,0.031625525653957334
46.32,0.031679964639976375
46.4,0.0318626478628493
46.480000000000004,0.03215726371648954
46.56,0.032542783326868205
46.64,0.03299725653969786
46.72,0.03350059388402223
46.800000000000004,0.03403563428692482
46.88,0.034587388352194
46.96,0.0351410011042913
47.04,0.03567946286677186
47.12,0.03618222873383188
47.2,0.03662562681149215
47.28,0.03698533119382323
47.36,0.03724044676220506
47.44,0.03737813629459512
47.52,0.03739741337270487
47.6,0.037310829734973766
47.68,0.03714328711959032
47.76,0.03692797177912277
47.84,0.036700230680022684
47.92,0.036490835063591985
48.0,0.036320300665262206
48.08,0.03619565837588999
48.160000000000004,0.03611036161193626
48.24,0.036047103372858214
48.32,0.03598251102458732
48.4,0.035892273311013835
48.480000000000004,0.03575536567700866
48.56,0.03555659956025591
48.64,0.035287470507931566
48.72,0.034945891844018716
48.800000000000004,0.03453562561837078
48.88,0.034065999726247055
48.96,0.03355198030214349
49.04,0.03301413912173853
49.120000000000005,0.032477802759662375
49.2,0.03197084330851492
49.28,0.031520113150918586
49.36,0.03114720158277101
49.44,0.03086468794572349
49.52,0.030674137337004925
49.6,0.03056665688409315
49.68,0.03052603616643835
49.76,0.03053362248844932
49.84,0.030573457734165657
49.92,0.030636066190869553
50.0,0.03071968932134874
50.08,0.030828573425458673
50.160000000000004,0.030968850653306658
50.24,0.03114330460429972
50.32,0.03134665204105885
50.4,0.03156282600482384
50.480000000000004,0.0317651923710474
50.56,0.031919856032188526
50.64,0.03199142904276696
50.72,0.031950023003135326
50.800000000000004,0.03177790937539047
50.88,0.031474315212304295
50.96,0.03105718016347441
51.04,0.0305613306708791
51.120000000000005,0.030033309432101862
51.2,0.029523863260971714
51.28,0.029079650595837947
51.36,0.028735922095339487
51.44,0.0285116822711772
51.52,0.028408208279756895
51.6,0.028410954105296114
51.68,0.02849404650703359
51.76,0.028626021523800657
51.84,0.028775312675474667
51.92,0.028914302989640546
52.0,0.02902136572315476
52.08,0.029081014834169104
52.160000000000004,0.029082820965373728
52.24,0.029019954580035708
52.32,0.028888068896711368
52.4,0.02868484965053201
52.480000000000004,0.028410138138147495
52.56,0.028066267289550195
52.64,0.027658229059496893
52.72,0.027193477323399308
52.800000000000004,0.026681429842224
52.88,0.026132913223918496
52.96,0.025559803807371197
53.04,0.02497496351259692
53.120000000000005,0.024392348079993915
53.2,0.02382700105199944
53.28,0.023294629407499948
53.36,0.022810596804730007
53.44,0.02238840162266436
53.52,0.0220379252144167
53.6,0.02176385242627622
53.68,0.0215646473038781
53.76,0.021432338064173214
53.84,0.02135318813418061
53.92,0.02130916406525163
54.0,0.02127998923906313
54.08,0.021245498679182982
54.160000000000004,0.021187977027260614
54.24,0.021094166318938422
54.32,0.02095667914858764
54.4,0.020774649954283887
54.480000000000004,0.020553588565877988
54.56,0.020304531374783587
54.64,0.020042676344574607
54.72,0.01978571585846006
54.800000000000004,0.019552054931001556
54.88,0.019359055565585002
54.96,0.019221416691422112
55.04,0.019149796715282087
