Frequency,PSD
6.057142857142857,0.051451534118015896
6.171428571428571,0.05146087367750106
6.285714285714286,0.05149770372877015
6.3999999999999995,0.051579455895528106
6.514285714285714,0.05169988161668536
6.628571428571428,0.05182008768971177
6.742857142857143,0.05188116315031955
6.857142857142857,0.051830093897002806
6.9714285714285715,0.05164145797413301
7.085714285714285,0.051321219921174464
7.2,0.050892083392797244
7.314285714285714,0.05037224569197267
7.428571428571428,0.04976252182350849
7.542857142857143,0.04904951165885101
7.657142857142857,0.04822082308706159
7.771428571428571,0.04728060869921897
7.885714285714285,0.04625460017210279
8.0,0.04518203041196975
8.114285714285714,0.04410126067084076
8.228571428571428,0.04304012590331551
8.342857142857143,0.04201832448905187
8.457142857142857,0.04106033779358806
8.571428571428571,0.0402094907263537
8.685714285714285,0.039532112896397825
8.799999999999999,0.039106182986235055
8.914285714285715,0.0389975332316299
9.028571428571428,0.039233265499376016
9.142857142857142,0.039783248218040045
9.257142857142856,0.04055683457567345
9.371428571428572,0.04141600659639616
9.485714285714286,0.0422008352374309
9.6,0.04276015857926303
9.714285714285714,0.04298022057944567
9.828571428571427,0.0428060397122836
9.942857142857143,0.04225278480707796
10.057142857142857,0.04140564339243719
10.17142857142857,0.04040651113088333
10.285714285714285,0.03942656404073471
10.4,0.03862777839997438
10.514285714285714,0.03812288068305405
10.628571428571428,0.03794735461641207
10.742857142857142,0.03805433422193089
10.857142857142858,0.038333738153751545
10.971428571428572,0.03864672141610781
11.085714285714285,0.038862036628480846
11.2,0.03888381692057221
11.314285714285713,0.03866645578369697
11.428571428571429,0.038216490834315574
11.542857142857143,0.03758254789059127
11.657142857142857,0.03683541288393757
11.77142857142857,0.03604370907346723
11.885714285714286,0.035254816983663145
12.0,0.03449090496066411
12.114285714285714,0.03376339243079176
12.228571428571428,0.03309842288257372
12.342857142857142,0.032557786828848786
12.457142857142857,0.03224028663828577
12.571428571428571,0.032258476171820136
12.685714285714285,0.032699509365707286
12.799999999999999,0.033588220811547456
12.914285714285715,0.034869933192562166
13.028571428571428,0.03642055021839133
13.142857142857142,0.03807857723419959
13.257142857142856,0.03968520475745124
13.371428571428572,0.04111800140641691
13.485714285714286,0.04230919846080324
13.6,0.043246432409963086
13.714285714285714,0.04395892811009208
13.828571428571427,0.04449519283880306
13.942857142857143,0.044900291976355866
14.057142857142857,0.04520136377416184
14.17142857142857,0.04540750517322618
14.285714285714285,0.04552383392968582
14.4,0.04557175532640164
14.514285714285714,0.04560278246210878
14.628571428571428,0.045695230211885804
14.742857142857142,0.04593154506946167
14.857142857142856,0.04636485290698997
14.971428571428572,0.04699065847773718
15.085714285714285,0.04773895105548702
15.2,0.04849263662334942
15.314285714285713,0.049124701323979766
15.428571428571429,0.04953666192142887
15.542857142857143,0.049681098264285566
15.657142857142857,0.0495613485067798
15.77142857142857,0.04921458772856443
15.885714285714284,0.04869146903422759
16.0,0.04804259803504188
16.114285714285714,0.047313567708973735
16.228571428571428,0.04654387290849109
16.34285714285714,0.045765112282499965
16.457142857142856,0.04499837854843126
16.57142857142857,0.04425413437444628
16.685714285714287,0.043536727172769574
16.8,0.04285133927927811
16.914285714285715,0.04220787022509126
17.02857142857143,0.04161725727607236
17.142857142857142,0.0410807640050083
17.257142857142856,0.04057843832715346
17.37142857142857,0.04006533811299731
17.485714285714284,0.039481324069461164
17.599999999999998,0.03877344407944782
17.714285714285715,0.03792281112502612
17.82857142857143,0.03696435444202736
17.942857142857143,0.03598988060498815
18.057142857142857,0.035131437927860505
18.17142857142857,0.034529680481419835
18.285714285714285,0.034297240523459865
18.4,0.03448824856058511
18.514285714285712,0.03508256936044339
18.628571428571426,0.035988826488155136
18.742857142857144,0.03706547179099036
18.857142857142858,0.03815473763054894
18.97142857142857,0.03912059121127063
19.085714285714285,0.039879611068907854
19.2,0.04041456124236078
19.314285714285713,0.04076555052449859
19.428571428571427,0.04100229623065211
19.54285714285714,0.041189744251254774
19.657142857142855,0.041363202735014204
19.771428571428572,0.041524726543596124
19.885714285714286,0.041660722745277205
20.0,0.04176782512567415
20.114285714285714,0.04186833650994172
20.228571428571428,0.04200279249092856
20.34285714285714,0.04220253173758466
20.457142857142856,0.04245981791081162
20.57142857142857,0.04271678006750625
20.685714285714287,0.04288382267366626
20.8,0.04287956264425015
20.914285714285715,0.04266991556285553
21.02857142857143,0.04228341285521654
21.142857142857142,0.04179383537230669
21.257142857142856,0.041280802802199645
21.37142857142857,0.040791484083640625
21.485714285714284,0.04032450461341219
21.599999999999998,0.0398428337651317
21.714285714285715,0.03930607274797868
21.82857142857143,0.038704228106885175
21.942857142857143,0.03807783466667368
22.057142857142857,0.03751848176509545
22.17142857142857,0.03715219358638681
22.285714285714285,0.03711197967747147
22.4,0.03750636610384362
22.514285714285712,0.03839060189484045
22.628571428571426,0.03974718745829261
22.742857142857144,0.04148084885521131
22.857142857142858,0.043429213760763995
22.97142857142857,0.04538603799643618
23.085714285714285,0.0471318296040257
23.2,0.04846780181711585
23.314285714285713,0.049250524805639836
23.428571428571427,0.049423150312146134
23.54285714285714,0.049034840098240495
23.657142857142855,0.04823744025131324
23.771428571428572,0.04725238643474233
23.885714285714286,0.04631186769759538
24.0,0.045591293159076146
24.114285714285714,0.0451574341942506
24.228571428571428,0.044953048701634135
24.34285714285714,0.044824881249656175
24.457142857142856,0.044583900068464945
24.57142857142857,0.04407331535750281
24.685714285714283,0.04321815667635051
24.8,0.04204078661656792
24.914285714285715,0.04064356904786275
25.02857142857143,0.0391733877866661
25.142857142857142,0.037785866185873845
25.257142857142856,0.03662016964540353
25.37142857142857,0.03578487590059387
25.485714285714284,0.03534935720852166
25.599999999999998,0.035336513581126064
25.71428571428571,0.035718294949786
25.82857142857143,0.036419195961591315
25.942857142857143,0.037331156941085006
26.057142857142857,0.0383374042971141
26.17142857142857,0.03933730269689882
26.285714285714285,0.040263149792142613
26.4,0.04108353752604422
26.514285714285712,0.041793935265554284
26.628571428571426,0.04240027259265803
26.742857142857144,0.04290344169216673
26.857142857142858,0.04329135871969095
26.97142857142857,0.04354127234178034
27.085714285714285,0.043629993701022454
27.2,0.0435458801841604
27.314285714285713,0.043295768471729716
27.428571428571427,0.04290305681787468
27.54285714285714,0.04239797189790822
27.657142857142855,0.041804858651966814
27.771428571428572,0.041132370685314765
27.885714285714286,0.040371074051954725
28.0,0.039500471365200816
28.114285714285714,0.038504331695399484
28.228571428571428,0.03738941783144975
28.34285714285714,0.03619928503241584
28.457142857142856,0.03501449452195763
28.57142857142857,0.03393553264591076
28.685714285714283,0.03305362732717916
28.8,0.032422376301863884
28.914285714285715,0.03204416739803748
29.02857142857143,0.03187830925363308
29.142857142857142,0.031866554917676454
29.257142857142856,0.03196300403417311
29.37142857142857,0.0321541739196623
29.485714285714284,0.03246147158343366
29.599999999999998,0.0329279036210717
29.71428571428571,0.033597684216687955
29.82857142857143,0.03449800285568635
29.942857142857143,0.03562777573592639
30.057142857142857,0.03695316268632609
30.17142857142857,0.038407793042790586
30.285714285714285,0.03989711270822244
30.4,0.04130796203936312
30.514285714285712,0.04252366562302893
30.628571428571426,0.04344197223980204
30.74285714285714,0.04399101128556001
30.857142857142858,0.04413916243371131
30.97142857142857,0.04389763274503121
31.085714285714285,0.043317108141650684
31.2,0.04248056058087354
31.314285714285713,0.041493732231629575
31.428571428571427,0.04047433240872794
31.54285714285714,0.03954087558934749
31.657142857142855,0.03880164181464321
31.77142857142857,0.03834331566782621
31.885714285714286,0.03821873361646695
32.0,0.03843517137753674
32.114285714285714,0.03894793495311483
32.22857142857143,0.039665514269472346
32.34285714285714,0.040469304450316324
32.457142857142856,0.04124345942521871
32.57142857142857,0.04190335583286884
32.68571428571428,0.042409780650125864
32.8,0.042762245768405115
32.91428571428571,0.04297551454351251
33.028571428571425,0.043052196643472165
33.14285714285714,0.0429660302570799
33.25714285714285,0.042664487566629127
33.371428571428574,0.04208934314419953
33.48571428571429,0.04120543497210567
33.6,0.04002508848702852
33.714285714285715,0.0386189923172484
33.82857142857143,0.037110812827051205
33.94285714285714,0.035658584081167476
34.05714285714286,0.03442851857985554
34.17142857142857,0.03356657755358299
34.285714285714285,0.033171864358271665
34.4,0.03327548277348395
34.51428571428571,0.03382927742180429
34.628571428571426,0.03470953513073845
34.74285714285714,0.035739177692884296
34.857142857142854,0.03672687375221066
34.97142857142857,0.03751385054345645
35.08571428571428,0.038012837264000024
35.199999999999996,0.0382233798790822
35.31428571428572,0.03821599955649127
35.42857142857143,0.03809131584736289
35.542857142857144,0.037932081309452366
35.65714285714286,0.03776922503226821
35.77142857142857,0.03757570098620784
35.885714285714286,0.03728847940264277
36.0,0.03684658064362022
36.114285714285714,0.03622722144705105
36.22857142857143,0.0354644971616289
36.34285714285714,0.034643544533001794
36.457142857142856,0.03387394692089387
36.57142857142857,0.033254958674317034
36.68571428571428,0.0328482276173103
36.8,0.03266929646438608
36.91428571428571,0.03269890408359811
37.028571428571425,0.03290426522042662
37.14285714285714,0.033255633480396084
37.25714285714285,0.03372813364185895
37.371428571428574,0.03429050299094776
37.48571428571429,0.03489309294994702
37.6,0.03546920959965088
37.714285714285715,0.03595460577449374
37.82857142857143,0.03631587331804911
37.94285714285714,0.036569878021166964
38.05714285714286,0.036779906951737176
38.17142857142857,0.03702783333683909
38.285714285714285,0.03737614980795979
38.4,0.037839613236887046
38.51428571428571,0.03838015526408573
38.628571428571426,0.03892518734182361
38.74285714285714,0.039397152007966056
38.857142857142854,0.03973821107950552
38.97142857142857,0.03991981081507652
39.08571428571428,0.03993807246068814
39.199999999999996,0.03980497898736615
39.31428571428571,0.039546077227201215
39.42857142857143,0.03920730373532313
39.542857142857144,0.03886248217303243
39.65714285714286,0.03860789967655437
39.77142857142857,0.03853650208363449
39.885714285714286,0.03869870640017629
40.0,0.03906962242130249
40.114285714285714,0.03954368243811232
40.22857142857143,0.039965066341405495
40.34285714285714,0.04018325823672335
40.457142857142856,0.04010925595852233
40.57142857142857,0.039747253461500154
40.68571428571428,0.03918852279171439
40.8,0.03857147456049088
40.91428571428571,0.038025807327583865
41.028571428571425,0.037623790792237634
41.14285714285714,0.0373572070607651
41.25714285714285,0.037147073859607804
41.371428571428574,0.03687983036886024
41.48571428571429,0.03645360276722234
41.6,0.035815677593181744
41.714285714285715,0.03497828301762118
41.82857142857143,0.03401081136291301
41.94285714285714,0.03301660868521188
42.05714285714286,0.03210634554966099
42.17142857142857,0.03137703221699999
42.285714285714285,0.030899638548380227
42.4,0.030713826691704197
42.51428571428571,0.0308275613488299
42.628571428571426,0.0312206288301966
42.74285714285714,0.03185143953034308
42.857142857142854,0.03266507224548544
42.97142857142857,0.03359931891066452
43.08571428571428,0.03458679699553946
43.199999999999996,0.03555472748143532
43.31428571428571,0.036426774766840905
43.42857142857143,0.037130645736066135
43.542857142857144,0.03761114056380655
43.65714285714286,0.037844008454902385
43.77142857142857,0.03784428505794932
43.885714285714286,0.03766445069357899
44.0,0.037381313608441054
44.114285714285714,0.03707434127253907
44.22857142857143,0.03680148029117046
44.34285714285714,0.03658076081379246
44.457142857142856,0.03638580147540903
44.57142857142857,0.03615917207338256
44.68571428571428,0.035839834231955
44.8,0.035393144459724024
44.91428571428571,0.034829270640312486
45.028571428571425,0.0342011370688057
45.14285714285714,0.03358381323555913
45.25714285714285,0.033047026274009204
45.37142857142857,0.03263494823466324
45.48571428571429,0.0323613374279041
45.6,0.0322182418632909
45.714285714285715,0.03218982453388056
45.82857142857143,0.03226328924473562
45.94285714285714,0.03243435055111759
46.05714285714286,0.03270955889461381
46.17142857142857,0.03310789283961625
46.285714285714285,0.03366016506073175
46.4,0.034401713195217815
46.51428571428571,0.035355798699787555
46.628571428571426,0.036511839443078106
46.74285714285714,0.037809135494847386
46.857142857142854,0.03913739223702818
46.97142857142857,0.0403582658759776
47.08571428571428,0.041341180560010335
47.199999999999996,0.04199871086263854
47.31428571428571,0.04230693877262426
47.42857142857143,0.04230403846243641
47.542857142857144,0.04207074227424611
47.65714285714286,0.04170327843658579
47.77142857142857,0.04129000338691578
47.885714285714286,0.04089860668691073
48.0,0.040574830124842635
48.114285714285714,0.040348934600869725
48.22857142857143,0.04024406353030288
48.34285714285714,0.040281772013378674
48.457142857142856,0.040484245462244495
48.57142857142857,0.04087835147979415
48.68571428571428,0.04150955226199286
48.8,0.04246925194960184
48.91428571428571,0.0439263447684021
49.028571428571425,0.04613839787542848
49.14285714285714,0.04941165056213048
49.25714285714285,0.05399274223575833
49.37142857142857,0.05991001317980769
49.48571428571429,0.06682423970080704
49.6,0.07397189230823768
49.714285714285715,0.08026509057693346
49.82857142857143,0.08454892048241283
49.94285714285714,0.08593615220163878
50.05714285714286,0.08408761266090478
50.17142857142857,0.0793191364070458
50.285714285714285,0.07249164593705035
50.4,0.06473837063112092
50.51428571428571,0.05714809257162858
50.628571428571426,0.05052392469190262
50.74285714285714,0.04528274441140891
50.857142857142854,0.041489616100018674
50.97142857142857,0.038973110133859734
51.08571428571428,0.037457319447015934
51.199999999999996,0.03666531183492954
51.31428571428571,0.03637640935980013
51.42857142857142,0.0364406271339226
51.542857142857144,0.03676361807666273
51.65714285714286,0.037277781152556366
51.77142857142857,0.037913789991944814
51.885714285714286,0.03858329896454112
52.0,0.03917826172919406
52.114285714285714,0.039586030786854035
52.22857142857143,0.03971395673204786
52.34285714285714,0.03951419312941051
52.457142857142856,0.03899953067892117
52.57142857142857,0.038244061467495004
52.68571428571428,0.037367283211217
52.8,0.03650534433718222
52.91428571428571,0.035776956694638914
53.028571428571425,0.035253188210917344
53.14285714285714,0.03493980343590503
53.25714285714285,0.034778154317823766
53.37142857142857,0.034665782298976704
53.48571428571429,0.034491353363516004
53.6,0.03417238414339929
53.714285714285715,0.03368181674912991
53.82857142857143,0.033053316290716984
53.94285714285714,0.03236421797773218
54.05714285714286,0.03170476212415008
54.17142857142857,0.03114732255945231
54.285714285714285,0.030727415617165386
54.4,0.03044136046137827
54.51428571428571,0.030257923301034263
54.628571428571426,0.03013664448674594
54.74285714285714,0.030044771639044413
54.857142857142854,0.029966835187626613
54.97142857142857,0.029904549359113502
55.08571428571428,0.029868801820398798
