Frequency,PSD
6.057142857142857,0.12853693119934909
6.171428571428571,0.129263021842491
6.285714285714286,0.13045440401801706
6.3999999999999995,0.1316885935563865
6.514285714285714,0.13253913725618624
6.628571428571428,0.1327292167144476
6.742857142857143,0.13222291252333757
6.857142857142857,0.13122282561727458
6.9714285714285715,0.13007984696404787
7.085714285714285,0.1291540764693694
7.2,0.1286832249055169
7.314285714285714,0.12870916379121713
7.428571428571428,0.12908620301883575
7.542857142857143,0.12955858664056974
7.657142857142857,0.12986793080819206
7.771428571428571,0.12984666217028426
7.885714285714285,0.12946921364437014
8.0,0.1288551243100628
8.114285714285714,0.128233917324268
8.228571428571428,0.12788756142824945
8.342857142857143,0.12808784112257315
8.457142857142857,0.12904736053868898
8.571428571428571,0.13090166537172504
8.685714285714285,0.1337308972022337
8.799999999999999,0.13761271573658979
8.914285714285715,0.1426818205270538
9.028571428571428,0.14916505970849792
9.142857142857142,0.15736927709916504
9.257142857142856,0.16761870470457052
9.371428571428572,0.18016221032593457
9.485714285714286,0.19508912148482352
9.6,0.21229718375260356
9.714285714285714,0.23154166893666758
9.828571428571427,0.2525618425845384
9.942857142857143,0.2752411638843527
10.057142857142857,0.299729250179113
10.17142857142857,0.3264536348772757
10.285714285714285,0.35598414683593194
10.4,0.38877577840432065
10.514285714285714,0.4248885954012541
10.628571428571428,0.4638340069307081
10.742857142857142,0.5046832521925257
10.857142857142858,0.5464647116754437
10.971428571428572,0.5886928457541653
11.085714285714285,0.6317133307512923
11.2,0.6765546249264803
11.314285714285713,0.7242142155592612
11.428571428571429,0.7746827702972614
11.542857142857143,0.8262847123506939
11.657142857142857,0.8758658874353714
11.77142857142857,0.9199536316000378
11.885714285714286,0.956457504195517
12.0,0.986093208067975
12.114285714285714,1.0127330178373781
12.228571428571428,1.042322600213044
12.342857142857142,1.080649100392469
12.457142857142857,1.1307982864767196
12.571428571428571,1.1913493339708772
12.685714285714285,1.2561199160363588
12.799999999999999,1.3156668375882516
12.914285714285715,1.3600075463573726
13.028571428571428,1.3814856153041073
13.142857142857142,1.3766404950713362
13.257142857142856,1.3464262188139284
13.371428571428572,1.2949243897894256
13.485714285714286,1.2273803941426689
13.6,1.1485798901095854
13.714285714285714,1.062202763891003
13.828571428571427,0.9711267442772085
13.942857142857143,0.8781369750631064
14.057142857142857,0.7864130830615339
14.17142857142857,0.6994720730170998
14.285714285714285,0.6206627835263404
14.4,0.5525510869821462
14.514285714285714,0.49650864946837003
14.628571428571428,0.45262794122202915
14.742857142857142,0.41990602930391674
14.857142857142856,0.3965681178071274
14.971428571428572,0.38042217962931846
15.085714285714285,0.36917893053131545
15.2,0.3606961540451341
15.314285714285713,0.35312465289109884
15.428571428571429,0.344969135318575
15.542857142857143,0.3351211660113752
15.657142857142857,0.32292971340724397
15.77142857142857,0.30831980958166394
15.885714285714284,0.2918816462377461
16.0,0.27480654180428
16.114285714285714,0.2585989633780159
16.228571428571428,0.24462510988185668
16.34285714285714,0.23367842203534456
16.457142857142856,0.2257598470861338
16.57142857142857,0.22016682002724902
16.685714285714287,0.21582737751528297
16.8,0.21170526778134446
16.914285714285715,0.20709807395911428
17.02857142857143,0.20173707563410037
17.142857142857142,0.1957074084591248
17.257142857142856,0.18927611489583623
17.37142857142857,0.1827221223481597
17.485714285714284,0.1762261006961206
17.599999999999998,0.1698345292253642
17.714285714285715,0.16348476575634266
17.82857142857143,0.1570697164395385
17.942857142857143,0.15052160094155143
18.057142857142857,0.14389305625728735
18.17142857142857,0.137407782160727
18.285714285714285,0.1314501856031331
18.4,0.12647622508673179
18.514285714285712,0.1228601052156368
18.628571428571426,0.12073105632120786
18.742857142857144,0.11987564757002303
18.857142857142858,0.11976282507552002
18.97142857142857,0.11969344216466765
19.085714285714285,0.11901302940733463
19.2,0.11729482936143751
19.314285714285713,0.11442000001351037
19.428571428571427,0.11053953621890279
19.54285714285714,0.1059601589305253
19.657142857142855,0.10102052500323172
19.771428571428572,0.09600770201848516
19.885714285714286,0.09112697856083658
20.0,0.08650842526452478
20.114285714285714,0.08222585200655833
20.228571428571428,0.07831347099527733
20.34285714285714,0.07477851562702138
20.457142857142856,0.07161387961320669
20.57142857142857,0.0688128735431782
20.685714285714287,0.06638383613144139
20.8,0.06436003292220423
20.914285714285715,0.06280043304612148
21.02857142857143,0.06177809910309397
21.142857142857142,0.06135494424424449
21.257142857142856,0.06154588709513174
21.37142857142857,0.06228206659081078
21.485714285714284,0.06338855501789088
21.599999999999998,0.06459187251113027
21.714285714285715,0.06556364747927429
21.82857142857143,0.06599141142429736
21.942857142857143,0.06565328333473963
22.057142857142857,0.06446883828037159
22.17142857142857,0.06250790549122398
22.285714285714285,0.059958261306364224
22.4,0.05707119202563487
22.514285714285712,0.05410981484820762
22.628571428571426,0.05131604345182339
22.742857142857144,0.04889586504465814
22.857142857142858,0.047011489846099784
22.97142857142857,0.04577012463595949
23.085714285714285,0.04520925675162363
23.2,0.045287183083328436
23.314285714285713,0.04588725471465099
23.428571428571427,0.0468360652466181
23.54285714285714,0.0479278629895651
23.657142857142855,0.048947100989747166
23.771428571428572,0.04968777928521461
23.885714285714286,0.04997458601832685
24.0,0.04968966102780512
24.114285714285714,0.04880028652322485
24.228571428571428,0.04737457994512508
24.34285714285714,0.04557251878209735
24.457142857142856,0.04360976051373693
24.57142857142857,0.041705138353335454
24.685714285714283,0.04003051296219294
24.8,0.03867961835469631
24.914285714285715,0.037663324535972965
25.02857142857143,0.03692842445001679
25.142857142857142,0.03639016950893804
25.257142857142856,0.035966357805657594
25.37142857142857,0.035601894207778546
25.485714285714284,0.03527664006715712
25.599999999999998,0.03499566780603911
25.71428571428571,0.034768324583441645
25.82857142857143,0.03458770058718978
25.942857142857143,0.03442193505106671
26.057142857142857,0.034222499041332566
26.17142857142857,0.03394516651031552
26.285714285714285,0.03357209471597826
26.4,0.03312250571946797
26.514285714285712,0.03264541752723689
26.628571428571426,0.03219734426900561
26.742857142857144,0.031815697404661857
26.857142857142858,0.03150068465820365
26.97142857142857,0.031213918397748064
27.085714285714285,0.03089340075594478
27.2,0.030476829340368626
27.314285714285713,0.02992237588352832
27.428571428571427,0.02921920172609373
27.54285714285714,0.028386340778333328
27.657142857142855,0.027463939783414264
27.771428571428572,0.026502391842286643
27.885714285714286,0.025553044835275093
28.0,0.024661619960922934
28.114285714285714,0.02386453713826845
28.228571428571428,0.02318888807890364
28.34285714285714,0.0226567763111915
28.457142857142856,0.022292660079723838
28.57142857142857,0.022129208709512897
28.685714285714283,0.022205954552851757
28.8,0.022557816492561188
28.914285714285715,0.023196399881388573
29.02857142857143,0.02409213299033614
29.142857142857142,0.025166202906041137
29.257142857142856,0.026297261729812598
29.37142857142857,0.027341611711104375
29.485714285714284,0.028160661834980682
29.599999999999998,0.028647787243908703
29.71428571428571,0.028747769794212077
29.82857142857143,0.028464263842400143
29.942857142857143,0.027853605198772134
30.057142857142857,0.02700705469902954
30.17142857142857,0.026027770561564096
30.285714285714285,0.02501117483145372
30.4,0.02403536830523159
30.514285714285712,0.02316198666789021
30.628571428571426,0.022441323191205384
30.74285714285714,0.02191374649962257
30.857142857142858,0.021604101253636866
30.97142857142857,0.021513195320437797
31.085714285714285,0.02161442006522237
31.2,0.021860612967647658
31.314285714285713,0.022198802909910272
31.428571428571427,0.022584460362096815
31.54285714285714,0.022986871856435588
31.657142857142855,0.023383033052775927
31.77142857142857,0.023744785349933815
31.885714285714286,0.024028141269807304
32.0,0.024172704166594453
32.114285714285714,0.0241137560410816
32.22857142857143,0.023802900468262868
32.34285714285714,0.023228436791781153
32.457142857142856,0.022426208149252547
32.57142857142857,0.0214756825767003
32.68571428571428,0.020482326840797465
32.8,0.019552618259743148
32.91428571428571,0.01876993969979625
33.028571428571425,0.018178017349150182
33.14285714285714,0.017775219254010453
33.25714285714285,0.017519836997853873
33.371428571428574,0.017344219871809737
33.48571428571429,0.017174090632153617
33.6,0.016948260111422288
33.714285714285715,0.016633607907805294
33.82857142857143,0.016231287016197093
33.94285714285714,0.015772838236242395
34.05714285714286,0.0153084490788113
34.17142857142857,0.014892388698543535
34.285714285714285,0.01457124121460241
34.4,0.014378534956861972
34.51428571428571,0.014335742807336611
34.628571428571426,0.01445637396344319
34.74285714285714,0.014748742077462492
34.857142857142854,0.015214416157043739
34.97142857142857,0.015842258775328043
35.08571428571428,0.016600611834549854
35.199999999999996,0.01743144667333319
35.31428571428572,0.01825005714901861
35.42857142857143,0.01895262203363841
35.542857142857144,0.019432002765252223
35.65714285714286,0.01959949832480641
35.77142857142857,0.01940732522485038
35.885714285714286,0.01886457988232776
36.0,0.018040033748995876
36.114285714285714,0.017049008816950765
36.22857142857143,0.01602745142759531
36.34285714285714,0.015101249839598888
36.457142857142856,0.014360230486196883
36.57142857142857,0.013843698548233372
36.68571428571428,0.01353978041562679
36.8,0.013396766099895187
36.91428571428571,0.013342433625921045
37.028571428571425,0.013306483968654532
37.14285714285714,0.01324070631521964
37.25714285714285,0.013131287996781009
37.371428571428574,0.012998890786981273
37.48571428571429,0.012885667614827524
37.6,0.012833583077166595
37.714285714285715,0.01286276893151924
37.82857142857143,0.012959454323982343
37.94285714285714,0.01307917822140544
38.05714285714286,0.013164054458647531
38.17142857142857,0.013166268808100644
38.285714285714285,0.013067162900881038
38.4,0.012883609454366252
38.51428571428571,0.012659529996945642
38.628571428571426,0.012447099252541696
38.74285714285714,0.012286221248444432
38.857142857142854,0.012190737716892058
38.97142857142857,0.012146139956858383
39.08571428571428,0.012118329448053626
39.199999999999996,0.01206857335111473
39.31428571428571,0.011967980944111344
39.42857142857143,0.011806096003783274
39.542857142857144,0.011591627050972636
39.65714285714286,0.011347008785604407
39.77142857142857,0.011100570675844376
39.885714285714286,0.010879868975767332
40.0,0.010707877524447282
40.114285714285714,0.010601616316432833
40.22857142857143,0.010571617143600382
40.34285714285714,0.010620856928398896
40.457142857142856,0.010743126632422679
40.57142857142857,0.010922300823755778
40.68571428571428,0.011134401149118857
40.8,0.011352975688525732
40.91428571428571,0.011555780148558526
41.028571428571425,0.011729017677944579
41.14285714285714,0.011866341004497013
41.25714285714285,0.011963351342121446
41.371428571428574,0.01201197411210268
41.48571428571429,0.01199980368826806
41.6,0.011916267749674476
41.714285714285715,0.011762341637858364
41.82857142857143,0.011557236454591937
41.94285714285714,0.011336521245130586
42.05714285714286,0.011141040024035516
42.17142857142857,0.011001630941574409
42.285714285714285,0.010927430250311943
42.4,0.010903692307358296
42.51428571428571,0.010899769229992771
42.628571428571426,0.010882488431862292
42.74285714285714,0.010827909337419183
42.857142857142854,0.010726426022547614
42.97142857142857,0.010580714365222212
43.08571428571428,0.010399937870273393
43.199999999999996,0.010194582736542855
43.31428571428571,0.009974299921559647
43.42857142857143,0.009748220331312842
43.542857142857144,0.009525632330607397
43.65714285714286,0.009315439273265079
43.77142857142857,0.009124468743658668
43.885714285714286,0.008955914132682314
44.0,0.008809156836799411
44.114285714285714,0.008681305439028982
44.22857142857143,0.008569842178196589
44.34285714285714,0.00847528222656843
44.457142857142856,0.008402693794731932
44.57142857142857,0.008361154719357871
44.68571428571428,0.008360820644974346
44.8,0.008408360321214932
44.91428571428571,0.008502727668266595
45.028571428571425,0.008633707305582727
45.14285714285714,0.00878461378167918
45.25714285714285,0.008938157950884916
45.37142857142857,0.009082254664911669
45.48571428571429,0.009212208837373491
45.6,0.00932792507080548
45.714285714285715,0.009428252295994817
45.82857142857143,0.00950682658928817
45.94285714285714,0.009553018039425173
46.05714285714286,0.009558180316852204
46.17142857142857,0.009523658670758398
46.285714285714285,0.009465468544979464
46.4,0.009412151066422741
46.51428571428571,0.00939591184928756
46.628571428571426,0.0094405918371313
46.74285714285714,0.009551591423459295
46.857142857142854,0.00971209349247655
46.97142857142857,0.009887394021311812
47.08571428571428,0.010035953771954313
47.199999999999996,0.010123151930132534
47.31428571428571,0.010132702957514278
47.42857142857143,0.010071754046383653
47.542857142857144,0.009968308817629444
47.65714285714286,0.009862523132882826
47.77142857142857,0.009795321696561499
47.885714285714286,0.009798292871698693
48.0,0.00988850663928299
48.114285714285714,0.010071656358468257
48.22857142857143,0.010357254687107433
48.34285714285714,0.010790354316736429
48.457142857142856,0.011504358727741247
48.57142857142857,0.012796368880717245
48.68571428571428,0.015215869751049015
48.8,0.019635728143387106
48.91428571428571,0.027244829224034633
49.028571428571425,0.03938190578177825
49.14285714285714,0.05715114874874767
49.25714285714285,0.08084763743509038
49.37142857142857,0.10936227502632778
49.48571428571429,0.13986037217707056
49.6,0.16802829673640998
49.714285714285715,0.18899155944875454
49.82857142857143,0.1986781303202379
49.94285714285714,0.1951114872105344
50.05714285714286,0.17906924155684806
50.17142857142857,0.15380472542062135
50.285714285714285,0.12396609325099602
50.4,0.09420362126845243
50.51428571428571,0.0680324461351573
50.628571428571426,0.0473066680974911
50.74285714285714,0.03232601567499057
50.857142857142854,0.022339618077290842
50.97142857142857,0.016138485821389617
51.08571428571428,0.01251298978291379
51.199999999999996,0.010494840105771102
51.31428571428571,0.009415501316468839
51.42857142857142,0.008859476483264059
51.542857142857144,0.008584249412079747
51.65714285714286,0.008449538754072096
51.77142857142857,0.008370858943382832
51.885714285714286,0.008295756908610003
52.0,0.008194755059100977
52.114285714285714,0.008058726439944921
52.22857142857143,0.007896608314184527
52.34285714285714,0.0077302314744090075
52.457142857142856,0.007585925031103172
52.57142857142857,0.00748497699133293
52.68571428571428,0.007436310052398308
52.8,0.007434252510906892
52.91428571428571,0.007462114097013837
53.028571428571425,0.007499493331864124
53.14285714285714,0.007529482598946879
53.25714285714285,0.007542353033531521
53.37142857142857,0.007534703223759777
53.48571428571429,0.007505936013290352
53.6,0.007455420727161864
53.714285714285715,0.007382826353373724
53.82857142857143,0.00729147295377344
53.94285714285714,0.007191965950871321
54.05714285714286,0.0071026901207479065
54.17142857142857,0.007045519600053292
54.285714285714285,0.007038201502758003
54.4,0.007087197326562955
54.51428571428571,0.007184742627287378
54.628571428571426,0.007311549154947203
54.74285714285714,0.0074434882476896985
54.857142857142854,0.007558706963657373
54.97142857142857,0.007641969198280375
55.08571428571428,0.007685137501325552
