Frequency,PSD
6.057142857142857,0.055699384764816895
6.171428571428571,0.0553340031014797
6.285714285714286,0.05467614971376606
6.3999999999999995,0.05385896775934275
6.514285714285714,0.0530496398054486
6.628571428571428,0.052411232529970715
6.742857142857143,0.052059903949933616
6.857142857142857,0.05203038101622765
6.9714285714285715,0.0522632600803622
7.085714285714285,0.05262118027073015
7.2,0.05292970210496088
7.314285714285714,0.05302859660289537
7.428571428571428,0.05281563368097966
7.542857142857143,0.052269413604576265
7.657142857142857,0.05144730934252313
7.771428571428571,0.05046393658535354
7.885714285714285,0.04946061827190468
8.0,0.04857603802561734
8.114285714285714,0.04792441541311434
8.228571428571428,0.047582834428900704
8.342857142857143,0.04758599387657936
8.457142857142857,0.04792558227947062
8.571428571428571,0.04855248741649003
8.685714285714285,0.049381991750486964
8.799999999999999,0.05030338637815518
8.914285714285715,0.05119483612571124
9.028571428571428,0.05194189769350949
9.142857142857142,0.05245536870450593
9.257142857142856,0.052683226308147806
9.371428571428572,0.052613409804076465
9.485714285714286,0.05226825220071711
9.6,0.05169505437887538
9.714285714285714,0.05095821517169315
9.828571428571427,0.050135714248538195
9.942857142857143,0.04931809485526076
10.057142857142857,0.048604421360427884
10.17142857142857,0.04808976346633155
10.285714285714285,0.04784331248690346
10.4,0.047883153517183474
10.514285714285714,0.04815893847119058
10.628571428571428,0.04855353391258963
10.742857142857142,0.048908255325450956
10.857142857142858,0.04906630995114659
10.971428571428572,0.04892051315317641
11.085714285714285,0.04844847132508397
11.2,0.04772244767503124
11.314285714285713,0.04688995425403396
11.428571428571429,0.04613098687439726
11.542857142857143,0.045605314324819804
11.657142857142857,0.0454062745349641
11.77142857142857,0.0455354007601592
11.885714285714286,0.04590542087374714
12.0,0.04636970407844515
12.114285714285714,0.04676740360600271
12.228571428571428,0.04696892417642095
12.342857142857142,0.04690779692587652
12.457142857142857,0.046591466124332015
12.571428571428571,0.04609140882932266
12.685714285714285,0.0455187866068094
12.799999999999999,0.04499380912122074
12.914285714285715,0.04461600248579763
13.028571428571428,0.04444067971443691
13.142857142857142,0.044465568861778194
13.257142857142856,0.04463065818936322
13.371428571428572,0.04483264197373166
13.485714285714286,0.04495194863582451
13.6,0.044885788412378086
13.714285714285714,0.04457719872044543
13.828571428571427,0.04403025250690584
13.942857142857143,0.043306344714982334
14.057142857142857,0.042503903601718115
14.17142857142857,0.041730130335538566
14.285714285714285,0.041075105961042156
14.4,0.04059532965009305
14.514285714285714,0.04030812954261749
14.628571428571428,0.04019416567791961
14.742857142857142,0.040204475870559635
14.857142857142856,0.04027029558542731
14.971428571428572,0.04031552141250894
15.085714285714285,0.04027119393822179
15.2,0.040089148391342054
15.314285714285713,0.03975036602802302
15.428571428571429,0.03926473302535683
15.542857142857143,0.03866288334825454
15.657142857142857,0.03798515202570077
15.77142857142857,0.037274266437950634
15.885714285714284,0.036575759325564595
16.0,0.0359445457036562
16.114285714285714,0.035451067773294404
16.228571428571428,0.03517914882991096
16.34285714285714,0.03521128844774713
16.457142857142856,0.03560381589313918
16.57142857142857,0.036360542148574156
16.685714285714287,0.03741596758450345
16.8,0.0386363632144456
16.914285714285715,0.03984044336316017
17.02857142857143,0.040834067377174786
17.142857142857142,0.041448806464017635
17.257142857142856,0.04157408824740699
17.37142857142857,0.04117638760612809
17.485714285714284,0.04030407698948239
17.599999999999998,0.0390802540594712
17.714285714285715,0.03768666313614809
17.82857142857143,0.036340432222583555
17.942857142857143,0.03526403090397585
18.057142857142857,0.03464972993796886
18.17142857142857,0.03462318773677055
18.285714285714285,0.03521462365958575
18.4,0.03634736380677081
18.514285714285712,0.037850407044697436
18.628571428571426,0.03949458717663794
18.742857142857144,0.04104375404013269
18.857142857142858,0.04230676152775585
18.97142857142857,0.04317538128315864
19.085714285714285,0.04363775725278903
19.2,0.043764806114157465
19.314285714285713,0.043675214200704374
19.428571428571427,0.043490830566141205
19.54285714285714,0.04329675015367543
19.657142857142855,0.043118694550354594
19.771428571428572,0.042924748446451076
19.885714285714286,0.04265033220249599
20.0,0.042236856672943135
20.114285714285714,0.041668996451402845
20.228571428571428,0.04099560298962312
20.34285714285714,0.040325425168408514
20.457142857142856,0.03979857131327287
20.57142857142857,0.03954381322905609
20.685714285714287,0.0396366905671043
20.8,0.040072522834696665
20.914285714285715,0.04076294759843478
21.02857142857143,0.041556861322808336
21.142857142857142,0.042279099683529615
21.257142857142856,0.04277487471398402
21.37142857142857,0.04294642403785974
21.485714285714284,0.04277127481188141
21.599999999999998,0.042298258667531195
21.714285714285715,0.04162542099274886
21.82857142857143,0.04086980984926144
21.942857142857143,0.0401402893018417
22.057142857142857,0.0395209605968897
22.17142857142857,0.039066924184049195
22.285714285714285,0.038809215170935156
22.4,0.03876377209423275
22.514285714285712,0.03894001801388486
22.628571428571426,0.03934631423556745
22.742857142857144,0.03999061665958665
22.857142857142858,0.040874963080687325
22.97142857142857,0.04198316533948071
23.085714285714285,0.043263596180425176
23.2,0.04461309300872387
23.314285714285713,0.04587149691939271
23.428571428571427,0.04683597544272556
23.54285714285714,0.047298239830074924
23.657142857142855,0.04709768011014483
23.771428571428572,0.04617412690792321
23.885714285714286,0.044600737216953
24.0,0.042582805804093155
24.114285714285714,0.04041999581357411
24.228571428571428,0.03844221865722787
24.34285714285714,0.03693777967107647
24.457142857142856,0.03609368087699639
24.57142857142857,0.03596269901137645
24.685714285714283,0.036462847112558844
24.8,0.037405531472731644
24.914285714285715,0.038542006049796504
25.02857142857143,0.03961519544641954
25.142857142857142,0.04040555536640544
25.257142857142856,0.04076378557596483
25.37142857142857,0.040627627186512305
25.485714285714284,0.04002300146386323
25.599999999999998,0.03905125173855011
25.71428571428571,0.03786535025735171
25.82857142857143,0.03663964177098636
25.942857142857143,0.03553966914653866
26.057142857142857,0.034699203460876016
26.17142857142857,0.03420926413160163
26.285714285714285,0.0341189406072212
26.4,0.034442626308404445
26.514285714285712,0.0351659645572601
26.628571428571426,0.03624504835986037
26.742857142857144,0.03759916043209888
26.857142857142858,0.03910335308708554
26.97142857142857,0.04058991566431878
27.085714285714285,0.04186541152068576
27.2,0.04274331467650351
27.314285714285713,0.04308444616372069
27.428571428571427,0.04283228372772742
27.54285714285714,0.042030519610217025
27.657142857142855,0.040816080012284726
27.771428571428572,0.039389534579093805
27.885714285714286,0.03797235653483608
28.0,0.03676359592384485
28.114285714285714,0.0359064612151598
28.228571428571428,0.035469981123502366
28.34285714285714,0.035445505567677296
28.457142857142856,0.035754794946336536
28.57142857142857,0.03626639305662371
28.685714285714283,0.03681849537845562
28.8,0.03724739310125129
28.914285714285715,0.03741928560013478
29.02857142857143,0.037260137540457434
29.142857142857142,0.036775462212045085
29.257142857142856,0.036052089643293664
29.37142857142857,0.03523835854209651
29.485714285714284,0.03450641073419854
29.599999999999998,0.03400703640546762
29.71428571428571,0.03383053739985243
29.82857142857143,0.03398508032368669
29.942857142857143,0.0343982103501468
30.057142857142857,0.0349400983544874
30.17142857142857,0.0354609365868965
30.285714285714285,0.0358310023090036
30.4,0.035971073607304595
30.514285714285712,0.0358637820129592
30.628571428571426,0.035543150030268436
30.74285714285714,0.03506827942604078
30.857142857142858,0.034494242480994496
30.97142857142857,0.03385462064176717
31.085714285714285,0.033164139027594124
31.2,0.03243893691423863
31.314285714285713,0.031721949384895275
31.428571428571427,0.031097347888128214
31.54285714285714,0.0306830727692105
31.657142857142855,0.03060138608728735
31.77142857142857,0.030938248805051784
31.885714285714286,0.031707848894450594
32.0,0.03283669624353863
32.114285714285714,0.034173989749464596
32.22857142857143,0.03552524104973782
32.34285714285714,0.03669824791390073
32.457142857142856,0.03754695747318437
32.57142857142857,0.03800032334337113
32.68571428571428,0.038069097870131734
32.8,0.03783139510168075
32.91428571428571,0.03740475731034664
33.028571428571425,0.036915569704193046
33.14285714285714,0.036474902003541476
33.25714285714285,0.03616465112354687
33.371428571428574,0.03603252132290129
33.48571428571429,0.03609199134965169
33.6,0.03632470545758649
33.714285714285715,0.036685588230642156
33.82857142857143,0.037112292942787756
33.94285714285714,0.03753888157974425
34.05714285714286,0.03791037833112119
34.17142857142857,0.038193119048179375
34.285714285714285,0.03837748985743205
34.4,0.03847358603537675
34.51428571428571,0.038503425638902716
34.628571428571426,0.0384933886710372
34.74285714285714,0.038468180687910344
34.857142857142854,0.038445645997246945
34.97142857142857,0.038432305534428925
35.08571428571428,0.03842181404883499
35.199999999999996,0.03839959791343407
35.31428571428572,0.038354417537310184
35.42857142857143,0.03829242700422477
35.542857142857144,0.038245364647624604
35.65714285714286,0.03826556034512805
35.77142857142857,0.03840687325693155
35.885714285714286,0.03869886465327291
36.0,0.039126356989879776
36.114285714285714,0.039624978034047006
36.22857142857143,0.040096203131574706
36.34285714285714,0.04043666524050536
36.457142857142856,0.040570407582443985
36.57142857142857,0.0404717868632712
36.68571428571428,0.0401707966482205
36.8,0.03973959355099809
36.91428571428571,0.039266068978739556
37.028571428571425,0.03882478618468204
37.14285714285714,0.03845598488747256
37.25714285714285,0.0381597193600229
37.371428571428574,0.03790612056178726
37.48571428571429,0.03765667015576463
37.6,0.03738749994352469
37.714285714285715,0.037105339149282636
37.82857142857143,0.03684971929512447
37.94285714285714,0.03668014831823706
38.05714285714286,0.036652355283870564
38.17142857142857,0.036791689934821833
38.285714285714285,0.0370732552609902
38.4,0.03741698661993001
38.51428571428571,0.03770185846236276
38.628571428571426,0.03779738609623458
38.74285714285714,0.03760398661107855
38.857142857142854,0.03708884471525482
38.97142857142857,0.03630335869965017
39.08571428571428,0.035373621639046636
39.199999999999996,0.034465591438770204
39.31428571428571,0.03373734828012336
39.42857142857143,0.03329658016268442
39.542857142857144,0.033178736367540956
39.65714285714286,0.033351369284047784
39.77142857142857,0.03373849735814742
39.885714285714286,0.0342516234720467
40.0,0.03481443365331809
40.114285714285714,0.035374521959115154
40.22857142857143,0.03590306172817527
40.34285714285714,0.036387918651416724
40.457142857142856,0.036825914730220274
40.57142857142857,0.03721733581444792
40.68571428571428,0.037562910775351205
40.8,0.03786208426449509
40.91428571428571,0.03811159498156273
41.028571428571425,0.03830429419672962
41.14285714285714,0.03842889875470117
41.25714285714285,0.03847157771117092
41.371428571428574,0.03841995012928507
41.48571428571429,0.038269332611307126
41.6,0.03802997568681837
41.714285714285715,0.037732767835041106
41.82857142857143,0.03743005813366321
41.94285714285714,0.03718874574051901
42.05714285714286,0.037075205965849525
42.17142857142857,0.037135509063972255
42.285714285714285,0.03737794996023089
42.4,0.03776576716334074
42.51428571428571,0.038224676870756286
42.628571428571426,0.038663402857097816
42.74285714285714,0.03899898160265261
42.857142857142854,0.0391760885693256
42.97142857142857,0.039172884686157636
43.08571428571428,0.038993397995038384
43.199999999999996,0.038653890192658046
43.31428571428571,0.03817341280723533
43.42857142857143,0.0375749216115817
43.542857142857144,0.03689508648991032
43.65714285714286,0.03619349378308162
43.77142857142857,0.03555035476754336
43.885714285714286,0.03504778570041971
44.0,0.034740154834019384
44.114285714285714,0.03462768773994366
44.22857142857143,0.03464881873016392
44.34285714285714,0.034699125785407195
44.457142857142856,0.034671796831602375
44.57142857142857,0.03450331707492562
44.68571428571428,0.034204469353592656
44.8,0.033862619602895355
44.91428571428571,0.033613505287342874
45.028571428571425,0.03359340401974982
45.14285714285714,0.03389012640013054
45.25714285714285,0.034511125354590916
45.37142857142857,0.035379931465016126
45.48571428571429,0.03636130605650321
45.6,0.037305053991521085
45.714285714285715,0.038092071632269346
45.82857142857143,0.03866620985466063
45.94285714285714,0.0390418897188348
46.05714285714286,0.0392874492596311
46.17142857142857,0.03949344296556346
46.285714285714285,0.039739391365500656
46.4,0.04007027546860947
46.51428571428571,0.04048745773412543
46.628571428571426,0.040951962720681884
46.74285714285714,0.0413948147107308
46.857142857142854,0.04173015059248922
46.97142857142857,0.04186984296627179
47.08571428571428,0.041740137693641946
47.199999999999996,0.04129963779365932
47.31428571428571,0.04055487208256028
47.42857142857143,0.03956746994454279
47.542857142857144,0.03844799013300856
47.65714285714286,0.03733585536325087
47.77142857142857,0.036370398211580425
47.885714285714286,0.03566167892799177
48.0,0.03526964161886536
48.114285714285714,0.035196741355708064
48.22857142857143,0.03539455230257933
48.34285714285714,0.03578140990512681
48.457142857142856,0.036267020505836085
48.57142857142857,0.03678076398806517
48.68571428571428,0.0373015931626974
48.8,0.03788720214639327
48.91428571428571,0.03869724958692997
49.028571428571425,0.04000012580671877
49.14285714285714,0.042147807160785616
49.25714285714285,0.04550415028087079
49.37142857142857,0.0503242457299318
49.48571428571429,0.05660712190332469
49.6,0.06397252723716035
49.714285714285715,0.07162712684974475
49.82857142857143,0.07846889991691017
49.94285714285714,0.08332779090117567
50.05714285714286,0.08527539740524338
50.17142857142857,0.08389204009655946
50.285714285714285,0.07938574462977145
50.4,0.07251696405102906
50.51428571428571,0.06436558785498692
50.628571428571426,0.056038677011758325
50.74285714285714,0.0484277674298161
50.857142857142854,0.04208449473242239
50.97142857142857,0.037221232897815884
51.08571428571428,0.03379438713244155
51.199999999999996,0.03161206566812008
51.31428571428571,0.030422624773012216
51.42857142857142,0.029968482322826645
51.542857142857144,0.030012025421004077
51.65714285714286,0.03034817073955292
51.77142857142857,0.03081329071652126
51.885714285714286,0.03129134663438218
52.0,0.031713171336574836
52.114285714285714,0.032046688373734866
52.22857142857143,0.032281563747008725
52.34285714285714,0.03241597297599484
52.457142857142856,0.03245210724084799
52.57142857142857,0.03240116304286933
52.68571428571428,0.032291838341120344
52.8,0.03217337118902969
52.91428571428571,0.032106962258372014
53.028571428571425,0.032146356962171545
53.14285714285714,0.032315318241005045
53.25714285714285,0.0325927620036276
53.37142857142857,0.032913851986840346
53.48571428571429,0.03318865597368116
53.6,0.03333227681279117
53.714285714285715,0.033295180336436365
53.82857142857143,0.03308199763334484
53.94285714285714,0.03275153425852217
54.05714285714286,0.03239812768214507
54.17142857142857,0.03212166629279072
54.285714285714285,0.03199750531674808
54.4,0.032056706268534824
54.51428571428571,0.032282146622277186
54.628571428571426,0.03261947203827642
54.74285714285714,0.03299651701172252
54.857142857142854,0.03334285362243559
54.97142857142857,0.03360302556358664
55.08571428571428,0.0337414507282525
