Frequency,PSD
6.057142857142857,0.09176792309414601
6.171428571428571,0.09115465046993411
6.285714285714286,0.09072392432699751
6.3999999999999995,0.09144635931018244
6.514285714285714,0.0936357971299431
6.628571428571428,0.09650806081334287
6.742857142857143,0.09850792154998597
6.857142857142857,0.09822654036620815
6.9714285714285715,0.0952798408726084
7.085714285714285,0.09056881979482823
7.2,0.0858282164370633
7.314285714285714,0.08284610550783598
7.428571428571428,0.08283913770803937
7.542857142857143,0.08620442311316251
7.657142857142857,0.092545883133458
7.771428571428571,0.10079374985191693
7.885714285714285,0.10940494602130349
8.0,0.11675055175989732
8.114285714285714,0.12164655936840367
8.228571428571428,0.12375358586845124
8.342857142857143,0.12360707287815402
8.457142857142857,0.12233169541508304
8.571428571428571,0.12128102196696683
8.685714285714285,0.12174649523489374
8.799999999999999,0.12472089429747714
8.914285714285715,0.13070753279555014
9.028571428571428,0.13965459039822536
9.142857142857142,0.1511013229998562
9.257142857142856,0.1645734864661588
9.371428571428572,0.1802138435042574
9.485714285714286,0.199494858805136
9.6,0.22562829701558926
9.714285714285714,0.26320614029254347
9.828571428571427,0.3168812783159073
9.942857142857143,0.3893829211405924
10.057142857142857,0.47956830122547156
10.17142857142857,0.5813901372476432
10.285714285714285,0.6845080663180193
10.4,0.7766381368547871
10.514285714285714,0.8467737452184448
10.628571428571428,0.8878351610236757
10.742857142857142,0.8977215712314541
10.857142857142858,0.8787886497361435
10.971428571428572,0.836461198074644
11.085714285714285,0.7776178596269322
11.2,0.709083519229289
11.314285714285713,0.6365158337884655
11.428571428571429,0.5639626077445108
11.542857142857143,0.4940854981094423
11.657142857142857,0.42870771426184123
11.77142857142857,0.3692867934520635
11.885714285714286,0.3170641466764934
12.0,0.272820404439592
12.114285714285714,0.2364395155006846
12.228571428571428,0.20678502401762555
12.342857142857142,0.1822743291748015
12.457142857142857,0.1618621870262328
12.571428571428571,0.14558509989894586
12.685714285714285,0.13411344722854746
12.799999999999999,0.1276841833023137
12.914285714285715,0.12536187047878
13.028571428571428,0.12522959891053181
13.142857142857142,0.12526951543915082
13.257142857142856,0.12419064160717538
13.371428571428572,0.12166363777579006
13.485714285714286,0.11799680780804053
13.6,0.11367543380121782
13.714285714285714,0.10913183464040496
13.828571428571427,0.10477151629567368
13.942857142857143,0.10099468375419259
14.057142857142857,0.09800082510691588
14.17142857142857,0.0955232573071092
14.285714285714285,0.09289332663663369
14.4,0.0895758325523635
14.514285714285714,0.08576144129939246
14.628571428571428,0.08243092772091001
14.742857142857142,0.08077394339305184
14.857142857142856,0.08142547110332396
14.971428571428572,0.08408978044535709
15.085714285714285,0.08776791322489691
15.2,0.09136848088047048
15.314285714285713,0.0942370883455565
15.428571428571429,0.09621891883010286
15.542857142857143,0.09727701275001124
15.657142857142857,0.09712552728707934
15.77142857142857,0.09533938494932893
15.885714285714284,0.0918954214038859
16.0,0.08758984575363563
16.114285714285714,0.08380731720754118
16.228571428571428,0.08168252655866007
16.34285714285714,0.08127327078418964
16.457142857142856,0.08142993293835313
16.57142857142857,0.08052333894397136
16.685714285714287,0.07751178560069867
16.8,0.07257463819140861
16.914285714285715,0.06693230742810138
17.02857142857143,0.06213204043846871
17.142857142857142,0.05939371742389335
17.257142857142856,0.05935781793742935
17.37142857142857,0.062123260688022375
17.485714285714284,0.0673017173548509
17.599999999999998,0.07401477183377468
17.714285714285715,0.0809678384227358
17.82857142857143,0.08669603295099082
17.942857142857143,0.08992674103601293
18.057142857142857,0.08995290960343857
18.17142857142857,0.08691653154385409
18.285714285714285,0.08185787260092511
18.4,0.07640033017963828
18.514285714285712,0.07213130073156235
18.628571428571426,0.06995779212781539
18.742857142857144,0.06974768294263767
18.857142857142858,0.07043052401770165
18.97142857142857,0.07054720926268546
19.085714285714285,0.06902217093486532
19.2,0.06573985182534839
19.314285714285713,0.06155846737035996
19.428571428571427,0.05777373216514465
19.54285714285714,0.05543913039368756
19.657142857142855,0.054966990558284114
19.771428571428572,0.05611480116781355
19.885714285714286,0.058197928513197245
20.0,0.06037691557118675
20.114285714285714,0.061967799604347555
20.228571428571428,0.0627023278903758
20.34285714285714,0.06279505722949597
20.457142857142856,0.06275212936131051
20.57142857142857,0.06305792607403043
20.685714285714287,0.06397347072048536
20.8,0.06555529445835716
20.914285714285715,0.06778330958025042
21.02857142857143,0.0705862368475195
21.142857142857142,0.07367461450075483
21.257142857142856,0.07634152104797799
21.37142857142857,0.07752880340464118
21.485714285714284,0.07628619854364425
21.599999999999998,0.07236988331236217
21.714285714285715,0.06651579258416576
21.82857142857143,0.060142954111684084
21.942857142857143,0.05468749153795119
22.057142857142857,0.050996609232326226
22.17142857142857,0.049082635728357575
22.285714285714285,0.04828747488700691
22.4,0.047738182087021824
22.514285714285712,0.0468626209485318
22.628571428571426,0.04567755961732822
22.742857142857144,0.04467784631975179
22.857142857142858,0.044435837493314784
22.97142857142857,0.04522470490409247
23.085714285714285,0.04690904270406527
23.2,0.049089347439130675
23.314285714285713,0.05130085925992123
23.428571428571427,0.05309985966576777
23.54285714285714,0.0540496712060736
23.657142857142855,0.05375234953644407
23.771428571428572,0.05202106956766024
23.885714285714286,0.049094778814683326
24.0,0.04566801001956743
24.114285714285714,0.04261432287035329
24.228571428571428,0.04054795798860895
24.34285714285714,0.03953371998004689
24.457142857142856,0.03915113388449948
24.57142857142857,0.03884371904132195
24.685714285714283,0.03828560542923466
24.8,0.03752587024959993
24.914285714285715,0.036864318734091794
25.02857142857143,0.036594362486196005
25.142857142857142,0.03679751089574737
25.257142857142856,0.03729628455724505
25.37142857142857,0.03775453180097408
25.485714285714284,0.03784101928612059
25.599999999999998,0.03737194205341754
25.71428571428571,0.036384994020065994
25.82857142857143,0.035125747683488764
25.942857142857143,0.03394698163018601
26.057142857142857,0.033157878050898024
26.17142857142857,0.032898022248198384
26.285714285714285,0.03310410864568741
26.4,0.03357501913333665
26.514285714285712,0.0340751362808357
26.628571428571426,0.034407671740434596
26.742857142857144,0.034443142183395975
26.857142857142858,0.0341397600422219
26.97142857142857,0.033579482181309094
27.085714285714285,0.0329808790361434
27.2,0.03262345738097939
27.314285714285713,0.032684815349062736
27.428571428571427,0.03309823497491088
27.54285714285714,0.03355944932404416
27.657142857142855,0.033697136374107206
27.771428571428572,0.03328082676461245
27.885714285714286,0.032323073053074025
28.0,0.031042446691922798
28.114285714285714,0.029753139001124494
28.228571428571428,0.028751451828175352
28.34285714285714,0.028229159427135275
28.457142857142856,0.028226011674993036
28.57142857142857,0.02863177472746422
28.685714285714283,0.029232436248505977
28.8,0.029775415326870606
28.914285714285715,0.0300297045713435
29.02857142857143,0.029834873340781075
29.142857142857142,0.029142687711274855
29.257142857142856,0.028044640314093525
29.37142857142857,0.026763243230276346
29.485714285714284,0.025591059941414113
29.599999999999998,0.024794228130012412
29.71428571428571,0.024526692986161298
29.82857142857143,0.024794045370576022
29.942857142857143,0.02546783147915878
30.057142857142857,0.026324258574228834
30.17142857142857,0.027092665889188742
30.285714285714285,0.02752607156397052
30.4,0.027500115767594025
30.514285714285712,0.027096884957676006
30.628571428571426,0.02659140199141515
30.74285714285714,0.026299584625619626
30.857142857142858,0.026361410152224783
30.97142857142857,0.026619065291696054
31.085714285714285,0.026700944763786604
31.2,0.026259581064210377
31.314285714285713,0.02518734021322739
31.428571428571427,0.023668229515232782
31.54285714285714,0.022067289746437114
31.657142857142855,0.02076195639479021
31.77142857142857,0.020011019320688397
31.885714285714286,0.019890212386948013
32.0,0.020280566933333247
32.114285714285714,0.020901657467585856
32.22857142857143,0.0214047339750552
32.34285714285714,0.021529466188335095
32.457142857142856,0.021264470316601204
32.57142857142857,0.02089334064833514
32.68571428571428,0.020848212089094837
32.8,0.021439169592754104
32.91428571428571,0.02265004865022195
33.028571428571425,0.02415213422022774
33.14285714285714,0.02551082634940162
33.25714285714285,0.02641539106752057
33.371428571428574,0.02677686016377121
33.48571428571429,0.02667453268333314
33.6,0.026244184026131063
33.714285714285715,0.025600468192840307
33.82857142857143,0.024810931500661194
33.94285714285714,0.023892789311235462
34.05714285714286,0.02282600903057736
34.17142857142857,0.021601841531197312
34.285714285714285,0.02029056737162005
34.4,0.01906185588823574
34.51428571428571,0.018116819942600972
34.628571428571426,0.017580298114763835
34.74285714285714,0.01744518910712745
34.857142857142854,0.017604856226779885
34.97142857142857,0.01792726107636895
35.08571428571428,0.018307585040670083
35.199999999999996,0.018681714340835372
35.31428571428572,0.019019945291490006
35.42857142857143,0.01931427164224477
35.542857142857144,0.019557355556909687
35.65714285714286,0.019721431179390656
35.77142857142857,0.01976234079617188
35.885714285714286,0.019658251383661354
36.0,0.01944947158135207
36.114285714285714,0.019228811453372765
36.22857142857143,0.01907427373864009
36.34285714285714,0.018977909251016372
36.457142857142856,0.01883680206348581
36.57142857142857,0.018521003139078528
36.68571428571428,0.017972106814243785
36.8,0.01726457939546147
36.91428571428571,0.016583858469077353
37.028571428571425,0.016124047993020692
37.14285714285714,0.015964852532358006
37.25714285714285,0.016016020957939758
37.371428571428574,0.016079688543380793
37.48571428571429,0.015991368314380465
37.6,0.015735021948499083
37.714285714285715,0.015449277003689666
37.82857142857143,0.015330512532661725
37.94285714285714,0.015513677315065717
38.05714285714286,0.01601290152833845
38.17142857142857,0.01674122296618301
38.285714285714285,0.01756514406116351
38.4,0.018341703924717068
38.51428571428571,0.01893076068352485
38.628571428571426,0.019214929351731348
38.74285714285714,0.019144778694681175
38.857142857142854,0.0187773175191655
38.97142857142857,0.018259117593088164
39.08571428571428,0.017751627391651162
39.199999999999996,0.01735526957949382
39.31428571428571,0.017090119697706223
39.42857142857143,0.01693125611622521
39.542857142857144,0.016845752452578824
39.65714285714286,0.016793300317333004
39.77142857142857,0.0167102118464425
39.885714285714286,0.016523627354341933
40.0,0.016206271748133452
40.114285714285714,0.015826798939365113
40.22857142857143,0.015541115914728156
40.34285714285714,0.015516458203873457
40.457142857142856,0.015835615668516864
40.57142857142857,0.016445114754784926
40.68571428571428,0.017180136436782616
40.8,0.01784799473329396
40.91428571428571,0.018317412532836502
41.028571428571425,0.018565113711178017
41.14285714285714,0.018667408213989295
41.25714285714285,0.018756699686049608
41.371428571428574,0.018962659545349387
41.48571428571429,0.019343326013361944
41.6,0.01982328462490175
41.714285714285715,0.020188542122348534
41.82857142857143,0.020180877275397024
41.94285714285714,0.019658098047607896
42.05714285714286,0.018704961370731122
42.17142857142857,0.017594544345878912
42.285714285714285,0.01662333618109402
42.4,0.015957686253548604
42.51428571428571,0.015610563118956578
42.628571428571426,0.015533613963878031
42.74285714285714,0.015703919264356426
42.857142857142854,0.01611339608295773
42.97142857142857,0.016688846403902922
43.08571428571428,0.01725136342323727
43.199999999999996,0.017586133175733612
43.31428571428571,0.017579545209560093
43.42857142857143,0.01730502456557656
43.542857142857144,0.01697951053684576
43.65714285714286,0.01682926362419375
43.77142857142857,0.01697599934369454
43.885714285714286,0.017413232933473428
44.0,0.018048530702906546
44.114285714285714,0.01874854912847337
44.22857142857143,0.01936311968080529
44.34285714285714,0.019749389045014575
44.457142857142856,0.0198092228072386
44.57142857142857,0.01951960762237923
44.68571428571428,0.018933884485744852
44.8,0.018162210037547616
44.91428571428571,0.01735182604645839
45.028571428571425,0.01666174431148366
45.14285714285714,0.016209537905518538
45.25714285714285,0.01600374052322542
45.37142857142857,0.015925257403143597
45.48571428571429,0.015803301594109368
45.6,0.015541237786906406
45.714285714285715,0.015186687311852163
45.82857142857143,0.014888205673533043
45.94285714285714,0.01478496253055594
46.05714285714286,0.014921481346766435
46.17142857142857,0.01523735510717243
46.285714285714285,0.015618630775978278
46.4,0.015967531339938994
46.51428571428571,0.016247492894127614
46.628571428571426,0.01647941866965377
46.74285714285714,0.016700858313045575
46.857142857142854,0.016929097028231626
46.97142857142857,0.01715791344729134
47.08571428571428,0.017376471556998844
47.199999999999996,0.017578976768813346
47.31428571428571,0.01775625391756691
47.42857142857143,0.01788789191226947
47.542857142857144,0.017949681998130303
47.65714285714286,0.017929324547534386
47.77142857142857,0.017836259445847782
47.885714285714286,0.0177023184030758
48.0,0.017579005188538235
48.114285714285714,0.017533918876017046
48.22857142857143,0.017639154340924047
48.34285714285714,0.017941100616798742
48.457142857142856,0.018414574140497134
48.57142857142857,0.018930862568868095
48.68571428571428,0.019283084727598074
48.8,0.019288359717867343
48.91428571428571,0.01894027649706705
49.028571428571425,0.018569377090440136
49.14285714285714,0.019003849149564274
49.25714285714285,0.02173423870427632
49.37142857142857,0.028959527926629095
49.48571428571429,0.04315172773764982
49.6,0.06574519809391965
49.714285714285715,0.09516947628229777
49.82857142857143,0.12556755517317897
49.94285714285714,0.14800419191839698
50.05714285714286,0.15451826353019818
50.17142857142857,0.14267473570108877
50.285714285714285,0.11710334562494612
50.4,0.086682390163672
50.51428571428571,0.059635036927389036
50.628571428571426,0.040162975953445784
50.74285714285714,0.028294756547608532
50.857142857142854,0.021855130920665676
50.97142857142857,0.018493467654351725
51.08571428571428,0.016638559971231426
51.199999999999996,0.015502714793571569
51.31428571428571,0.01474682895646287
51.42857142857142,0.01421915743851365
51.542857142857144,0.013847957926297652
51.65714285714286,0.013617969297999109
51.77142857142857,0.013564941499859219
51.885714285714286,0.013755869528165317
52.0,0.014243329075374157
52.114285714285714,0.015009582858074324
52.22857142857143,0.015941809349689456
52.34285714285714,0.016868081219441826
52.457142857142856,0.017634847350140585
52.57142857142857,0.01816931623963223
52.68571428571428,0.018483114635146566
52.8,0.018622083091317816
52.91428571428571,0.018605756366503162
53.028571428571425,0.018402046089353877
53.14285714285714,0.01795413836764086
53.25714285714285,0.017239247383023407
53.37142857142857,0.01631566767170943
53.48571428571429,0.015322487486352223
53.6,0.014431127370593882
53.714285714285715,0.013781842378724431
53.82857142857143,0.013446162442204278
53.94285714285714,0.013435685978072634
54.05714285714286,0.013742927865592069
54.17142857142857,0.014373391977839255
54.285714285714285,0.015335094062556676
54.4,0.016594467732333383
54.51428571428571,0.018044727224525225
54.628571428571426,0.019521139527640712
54.74285714285714,0.020851977032486386
54.857142857142854,0.021907451941021967
54.97142857142857,0.022620248288584836
55.08571428571428,0.022974242374026108
