Frequency,PSD
6.0,0.475679474248033
6.08,0.4702315992027857
6.16,0.45995253213687703
6.24,0.446026376533873
6.32,0.4300803844205874
6.4,0.41396998239806204
6.48,0.3995033705274186
6.5600000000000005,0.38818027544107114
6.640000000000001,0.3810206500021289
6.72,0.3785104116760173
6.8,0.3806284328576247
6.88,0.38689061419321996
6.96,0.39637392732565774
7.04,0.40774210421295753
7.12,0.41933641393091403
7.2,0.42938401070981025
7.28,0.4363160077990653
7.36,0.4391159538181668
7.44,0.43758177141261506
7.5200000000000005,0.43240249540748965
7.6000000000000005,0.42501336315022553
7.68,0.41726565225980167
7.76,0.4110004452220279
7.84,0.4076363576807692
7.92,0.4078748805340162
8.0,0.41160035942806195
8.08,0.41800513237875603
8.16,0.42590454106875786
8.24,0.43413680377055425
8.32,0.44190211108588895
8.4,0.44891549511732287
8.48,0.4553313366698154
8.56,0.4615051318425816
8.64,0.4677301660707531
8.72,0.47408053933873345
8.8,0.48041276689128853
8.88,0.486477082005106
8.96,0.4920306465882125
9.040000000000001,0.4968633487655837
9.120000000000001,0.5007263963840827
9.200000000000001,0.5032377603520366
9.28,0.503867422237239
9.36,0.5020575853940206
9.44,0.49743969708410746
9.52,0.4900349616909791
9.6,0.480320805646878
9.68,0.4691178876216823
9.76,0.45735487906821165
9.84,0.44583585376681084
9.92,0.4351266085436787
10.0,0.42560008230381635
10.08,0.41758592820173557
10.16,0.4115105121333463
10.24,0.4079208197428888
10.32,0.4073512478298921
10.4,0.41008054738139654
10.48,0.41589334926407506
10.56,0.4239730357274821
10.64,0.4330008392938933
10.72,0.441441773805146
10.8,0.44790809375596097
10.88,0.4514545054356311
10.96,0.4516979089776838
11.040000000000001,0.44874569434357
11.120000000000001,0.4430065968723911
11.200000000000001,0.43499648703913957
11.28,0.42522407396348894
11.36,0.4141759637661136
11.44,0.40236219086248604
11.52,0.3903625304655453
11.6,0.3788298292817274
11.68,0.36843711422042213
11.76,0.3597793231155843
11.84,0.35325260631067656
11.92,0.34894067374224247
12.0,0.3465434451816171
12.08,0.3453837145270289
12.16,0.34451382298713973
12.24,0.34291477482191857
12.32,0.3397454717955534
12.4,0.3345764001334784
12.48,0.3275411428837285
12.56,0.319359475922221
12.64,0.311217832332735
12.72,0.3045264730567398
12.8,0.3006022229382576
12.88,0.3003481458961359
12.96,0.30401164922340956
13.040000000000001,0.3110916600829814
13.120000000000001,0.32042864607777144
13.200000000000001,0.33045584887142077
13.280000000000001,0.33953787738674807
13.36,0.3462988420147852
13.44,0.34985783466698406
13.52,0.349933086539425
13.6,0.34682086649068145
13.68,0.34127941433786
13.76,0.3343505108312398
13.84,0.32714771279728166
13.92,0.32064617980070687
14.0,0.31552244956876413
14.08,0.31209490326538336
14.16,0.31038959655869097
14.24,0.3103044618518153
14.32,0.31179362727482823
14.4,0.3149753277367712
14.48,0.3200976913369249
14.56,0.3273643374936307
14.64,0.3366927300881072
14.72,0.34751721532250923
14.8,0.358736873035351
14.88,0.3688516295186579
14.96,0.37625483172061114
15.040000000000001,0.37959025231387783
15.120000000000001,0.3780611536519315
15.200000000000001,0.37160324390173555
15.280000000000001,0.3608859109519357
15.36,0.3471609406468735
15.44,0.3320143787419846
15.52,0.31708900720584987
15.6,0.3038375553230437
15.68,0.2933483973092686
15.76,0.2862611791636095
15.84,0.28276363871872745
15.92,0.2826405198439581
16.0,0.285341029741591
16.080000000000002,0.2900467948140674
16.16,0.29574821191564926
16.240000000000002,0.30135346005364927
16.32,0.30584494570760873
16.4,0.30846453414197506
16.48,0.30887338020851157
16.56,0.30722168998383215
16.64,0.30409059276334527
16.72,0.3003198450219241
16.8,0.29678209107422
16.88,0.2941809490613112
16.96,0.29292977656721286
17.04,0.29312507956415595
17.12,0.2945873957845787
17.2,0.296923113125206
17.28,0.29957024394632237
17.36,0.3018221845699705
17.44,0.30285711505786966
17.52,0.3018148724138183
17.6,0.2979447535457115
17.68,0.2908031624492942
17.76,0.28043493345316867
17.84,0.2674567245220099
17.92,0.25298922457019435
18.0,0.2384441659051813
18.080000000000002,0.22523026310814936
18.16,0.21446924192702838
18.240000000000002,0.206799594353706
18.32,0.20230543207112314
18.400000000000002,0.20056522125372367
18.48,0.2007883435230886
18.56,0.20199943111366908
18.64,0.2032330814849928
18.72,0.20370580331771235
18.8,0.20293569136699935
18.88,0.20078773056070423
18.96,0.19743813518220407
19.04,0.19327283975408813
19.12,0.1887546835945762
19.2,0.18430150507526125
19.28,0.18020942437080162
19.36,0.17663598300627745
19.44,0.17363511766365625
19.52,0.17121854283984894
19.6,0.16941135158750192
19.68,0.16827544162877456
19.76,0.1678910063502067
19.84,0.16830758068590967
19.92,0.1694920696485798
20.0,0.1713026691512179
20.080000000000002,0.1735027086461544
20.16,0.17580561763566344
20.240000000000002,0.1779259061747622
20.32,0.1796119704857692
20.400000000000002,0.1806534852276388
20.48,0.18087631515193708
20.56,0.18014622051869988
20.64,0.17839329568529633
20.72,0.17564974575134049
20.8,0.17207905685513825
20.88,0.16797503858758608
20.96,0.16372309533373677
21.04,0.15973312651719054
21.12,0.15636382821689992
21.2,0.15385922169280894
21.28,0.1523135360673083
21.36,0.15167402015088477
21.44,0.15178320046325638
21.52,0.1524511268744848
21.6,0.15353569986832702
21.68,0.1550012872773653
21.76,0.15692944757159033
21.84,0.1594724615292639
21.92,0.1627642268120534
22.0,0.16682249067319377
22.080000000000002,0.17148165005171187
22.16,0.1763839374039718
22.240000000000002,0.18103431552845442
22.32,0.18490084456964204
22.400000000000002,0.18752701142835784
22.48,0.18862060484101248
22.56,0.18809488961104182
22.64,0.186057178750269
22.72,0.18275964917520043
22.8,0.17853927251435037
22.88,0.17377275639463177
22.96,0.16885878771567966
23.04,0.1642202328843456
23.12,0.1603033192305239
23.2,0.1575477281999813
23.28,0.15631373911006796
23.36,0.1567757545035167
23.44,0.15881603440060854
23.52,0.16196671437415391
23.6,0.16544305483140384
23.68,0.16828415910069744
23.76,0.16957683688117936
23.84,0.16870029677697213
23.92,0.16551216723508164
24.0,0.16041029307518334
24.080000000000002,0.15424564915631378
24.16,0.14811228149177397
24.240000000000002,0.14307912917756685
24.32,0.13994159935631414
24.400000000000002,0.13905672284079273
24.48,0.1402947336596175
24.560000000000002,0.14310583503938812
24.64,0.14667390736959457
24.72,0.15011289532926744
24.8,0.15265661726378832
24.88,0.15379838312789187
24.96,0.15335286370659684
25.04,0.1514365578566457
25.12,0.14838794891187945
25.2,0.14466429608512904
25.28,0.1407517710853271
25.36,0.13710962401139376
25.44,0.1341458501988173
25.52,0.13220411475263882
25.6,0.1315393577513031
25.68,0.13227384288535873
25.76,0.13434764138847252
25.84,0.13749306563047428
25.92,0.14125958403933964
26.0,0.14509357610190649
26.080000000000002,0.148448423317227
26.16,0.15088343948076874
26.240000000000002,0.1521169592397011
26.32,0.1520255933991192
26.400000000000002,0.15061036957017884
26.48,0.14796215631895432
26.560000000000002,0.14424723601080333
26.64,0.1397100294451031
26.72,0.13467259925714786
26.8,0.12951155919791515
26.88,0.12460905181928052
26.96,0.12029149931992089
27.04,0.11677567625715202
27.12,0.11413521428790946
27.2,0.11229070254141085
27.28,0.11102231328088268
27.36,0.11000650134077228
27.44,0.10888050127815087
27.52,0.10733187382186961
27.6,0.10519472724742784
27.68,0.10251897365639347
27.76,0.09957741197833227
27.84,0.09679441064000618
27.92,0.09461318457856742
28.0,0.09334900905284514
28.080000000000002,0.09308557501442216
28.16,0.09365425928490903
28.240000000000002,0.0946998721493866
28.32,0.09580014045663056
28.400000000000002,0.09658761029798782
28.48,0.09682912419687373
28.560000000000002,0.0964435718855787
28.64,0.09546864222856609
28.72,0.09400701741735773
28.8,0.09218404753482912
28.88,0.09013436200291436
28.96,0.08801362023825743
29.04,0.08601543174314254
29.12,0.08437057582837709
29.2,0.08331681102111199
29.28,0.08304597443793019
29.36,0.08365005497508646
29.44,0.08509093180582918
29.52,0.08720802507526033
29.6,0.08976052485880466
29.68,0.0924861154993481
29.76,0.09515357839635818
29.84,0.0975930706905808
29.92,0.09969995222387423
30.0,0.10141874116566467
30.080000000000002,0.10271881346088232
30.16,0.1035728490571912
30.240000000000002,0.1039454558196726
30.32,0.1037953153315032
30.400000000000002,0.10309024815727215
30.48,0.10183044617050309
30.560000000000002,0.10007127175427359
30.64,0.09793548667705139
30.72,0.09560753688808281
30.8,0.09330924255971722
30.88,0.0912636500488359
30.96,0.08965781236272923
31.04,0.08861412439767437
31.12,0.08817534428044685
31.2,0.08830405490711243
31.28,0.08889507897831996
31.36,0.08979845875975785
31.44,0.09084902864080813
31.52,0.09189587289251255
31.6,0.09282318098916673
31.68,0.09355600587554805
31.76,0.09405067160994929
31.84,0.09427694731105923
31.92,0.09420287596750998
32.0,0.0937906701252446
32.08,0.09300499575517028
32.160000000000004,0.0918279464573487
32.24,0.09027222487315048
32.32,0.08838630586026643
32.4,0.08625021104548407
32.480000000000004,0.08396470082684171
32.56,0.08163838259799355
32.64,0.07937655918251607
32.72,0.07727364085141389
32.8,0.07540866701478419
32.88,0.07384186869138287
32.96,0.07261014093581285
33.04,0.07172112644763473
33.12,0.07114841547214866
33.2,0.07083211775075465
33.28,0.07068802576847168
33.36,0.07062487675998885
33.44,0.07056497864859854
33.52,0.07046134053073141
33.6,0.0703056473787495
33.68,0.0701250285521617
33.76,0.06996955292664608
33.84,0.06989507737313483
33.92,0.06994684596867523
34.0,0.07014816729033009
34.08,0.07049603779562984
34.160000000000004,0.07096269480062692
34.24,0.07150025409112516
34.32,0.07204591525286476
34.4,0.0725271927269112
34.480000000000004,0.07286818071723526
34.56,0.07299725663158335
34.64,0.07285452115728236
34.72,0.07239639461755232
34.800000000000004,0.07159709075656591
34.88,0.07045072960703322
34.96,0.06897949004744454
35.04,0.06724942199856127
35.12,0.0653878133815217
35.2,0.06358980526158771
35.28,0.06210257175939789
35.36,0.06118374692914376
35.44,0.06104262264906537
35.52,0.06178150366255089
35.6,0.06335605913672158
35.68,0.06556755073767626
35.76,0.06809014555899565
35.84,0.07052762851514449
35.92,0.07248812995868133
36.0,0.07366256823932593
36.08,0.07389090300705141
36.160000000000004,0.07320003525419724
36.24,0.07180052588174057
36.32,0.07003848397578365
36.4,0.06831290813037227
36.480000000000004,0.0669819070095809
36.56,0.06628637968618517
36.64,0.0663129686289826
36.72,0.0670019668176078
36.800000000000004,0.06818834167893564
36.88,0.06965384524409168
36.96,0.07116969448315232
37.04,0.07252032745667127
37.12,0.0735121496006113
37.2,0.07397922816753373
37.28,0.07379654105555497
37.36,0.07290239191025435
37.44,0.07132121258582236
37.52,0.06917303442515647
37.6,0.06665967866772327
37.68,0.06402798270103138
37.76,0.06152108451225849
37.84,0.059333952553154636
37.92,0.057586581251994035
38.0,0.056319702382722533
38.08,0.05550836209259471
38.160000000000004,0.05508299105943325
38.24,0.05494791296741733
38.32,0.054992604863641284
38.4,0.05509788565292091
38.480000000000004,0.05514329330182182
38.56,0.05502062381631581
38.64,0.05465280294214851
38.72,0.054011046678622734
38.800000000000004,0.05312142229960098
38.88,0.05205643053077059
38.96,0.05091544801809883
39.04,0.049804060321102864
39.12,0.04882175045567566
39.2,0.04806007583610114
39.28,0.04760447325661209
39.36,0.047528936578269745
39.44,0.047877491120407144
39.52,0.04863704927953804
39.6,0.04971573177756339
39.68,0.05094224366262744
39.76,0.05209363018319549
39.84,0.052945254152071644
39.92,0.05332593171387492
40.0,0.05315876668946348
40.08,0.052474885273937955
40.160000000000004,0.05139851804917496
40.24,0.050111697624054125
40.32,0.04881144382113414
40.4,0.04767151781167968
40.480000000000004,0.04681680172238981
40.56,0.046313403816973804
40.64,0.046173025531133054
40.72,0.046366663918825865
40.800000000000004,0.04684113171718934
40.88,0.04753278919353065
40.96,0.04837588962609468
41.04,0.04930627627991499
41.12,0.05026277883453736
41.2,0.051187905745992836
41.28,0.05202775098675318
41.36,0.05273068253646547
41.44,0.05324625150080227
41.52,0.05352826729001044
41.6,0.05354612905759327
41.68,0.05330442850421415
41.76,0.05286385298582387
41.84,0.0523508151077373
41.92,0.05194375872700125
42.0,0.05183256095332961
42.08,0.052160808329190705
42.160000000000004,0.052972069586339224
42.24,0.05418362711373453
42.32,0.055601742126289835
42.4,0.05697512573931118
42.480000000000004,0.05806639376723349
42.56,0.05871358412148969
42.64,0.058859227944068254
42.72,0.0585399339543744
42.800000000000004,0.05784682559836106
42.88,0.05687796158338528
42.96,0.0557037937127345
43.04,0.05435741096392524
43.12,0.05284853488956162
43.2,0.05119019896058433
43.28,0.04942347197965427
43.36,0.04762867134494618
43.44,0.0459187415424787
43.52,0.04441820230451364
43.6,0.04323611742734075
43.68,0.04244239760150442
43.76,0.04205406544406453
43.84,0.04203399009265071
43.92,0.042301100804835325
44.0,0.042748939328880825
44.08,0.04326808820319965
44.160000000000004,0.043767063142008844
44.24,0.0441863260246081
44.32,0.044502290936241085
44.4,0.04472238936107761
44.480000000000004,0.04487606683976789
44.56,0.04500693167423406
44.64,0.0451673104279035
44.72,0.04541110139135528
44.800000000000004,0.04577900895164394
44.88,0.04627495400694302
44.96,0.04684162509313733
45.04,0.04735035135356665
45.12,0.04761923817959121
45.2,0.04746208719465132
45.28,0.0467540609016943
45.36,0.04548765446707276
45.44,0.04379234560391143
45.52,0.041904976502359734
45.6,0.040099346969182596
45.68,0.03860196511457566
45.76,0.037527090121534434
45.84,0.03685525056351177
45.92,0.03646022582574847
46.0,0.0361696711954799
46.08,0.03583318845244522
46.160000000000004,0.03537261693638501
46.24,0.034800148848042126
46.32,0.03420393715390262
46.4,0.03371159172374044
46.480000000000004,0.03344618217471507
46.56,0.03348797369860837
46.64,0.03385109513741401
46.72,0.03448003071877384
46.800000000000004,0.03526662639934952
46.88,0.0360834491990111
46.96,0.036823865152582375
47.04,0.037435098116415697
47.12,0.03793092312728202
47.2,0.03837739186597691
47.28,0.03885645745212108
47.36,0.03942332754473653
47.44,0.040077577223148794
47.52,0.04076217615731132
47.6,0.04139089585322016
47.68,0.04189015751101317
47.76,0.0422341363998801
47.84,0.042455736499049455
47.92,0.042628484237676
48.0,0.0428284682912235
48.08,0.04309398778669535
48.160000000000004,0.043400236098815784
48.24,0.04365883332379801
48.32,0.043742009216475364
48.4,0.0435230955004476
48.480000000000004,0.0429206698364214
48.56,0.04193299961224102
48.64,0.040651633609963864
48.72,0.039247925948334525
48.800000000000004,0.037933862924295056
48.88,0.03690742022729747
48.96,0.036299594372750585
49.04,0.036141451984722864
49.120000000000005,0.03636311754015721
49.2,0.036824399931142324
49.28,0.03736405857828106
49.36,0.03784776797850844
49.44,0.038197234536660726
49.52,0.038393221159637184
49.6,0.038457632521134474
49.68,0.03842761424156449
49.76,0.0383343886894973
49.84,0.03819301132885946
49.92,0.038001608345962154
50.0,0.03774481884535767
50.08,0.03739747595657665
50.160000000000004,0.03692854881877697
50.24,0.03630807885158297
50.32,0.03551888745414639
50.4,0.03457093957848063
50.480000000000004,0.03351247794944878
50.56,0.032431421093322046
50.64,0.031443860131550136
50.72,0.03067191701965858
50.800000000000004,0.030217612133855494
50.88,0.03014053577022396
50.96,0.03044502576504968
51.04,0.031078962866219802
51.120000000000005,0.03194316078661366
51.2,0.032908581731150306
51.28,0.03383803593436006
51.36,0.034608949276575256
51.44,0.03513373775797864
51.52,0.035374257352951105
51.6,0.035346978761012254
51.68,0.035116471261361526
51.76,0.03477700003136107
51.84,0.03442561916687577
51.92,0.03413410955277939
52.0,0.03392942935679135
52.08,0.03379089696870826
52.160000000000004,0.03366652181434175
52.24,0.03350272638199005
52.32,0.03327514355491465
52.4,0.03300700121040759
52.480000000000004,0.03276692388227633
52.56,0.03264726522766092
52.64,0.03273256326091467
52.72,0.0330712019472191
52.800000000000004,0.03366062616893535
52.88,0.03444955143114309
52.96,0.035353322761206084
53.04,0.036274236412713455
53.120000000000005,0.03711865093683133
53.2,0.03780631897739701
53.28,0.03827231607571369
53.36,0.038465640066442854
53.44,0.038349302643307645
53.52,0.03790451988840622
53.6,0.03713800997588969
53.68,0.03608858630967442
53.76,0.03482866730831301
53.84,0.033458105843252164
53.92,0.03209080947118256
54.0,0.030837520134856022
54.08,0.029789704245978016
54.160000000000004,0.029009260370771353
54.24,0.028526784277703995
54.32,0.028348001181928085
54.4,0.028464601738944946
54.480000000000004,0.028863353246012975
54.56,0.02952740927899212
54.64,0.03042712986307538
54.72,0.03150384228397442
54.800000000000004,0.03265606993498542
54.88,0.03373983066451943
54.96,0.03458991820675927
55.04,0.035058752127494
