Frequency,PSD
6.057142857142857,0.12897612495948158
6.171428571428571,0.12936124475499466
6.285714285714286,0.13009094301809923
6.3999999999999995,0.13109181120765928
6.514285714285714,0.132271674220504
6.628571428571428,0.13353773825494744
6.742857142857143,0.1348155473958591
6.857142857142857,0.13606511898347862
6.9714285714285715,0.13729087980848048
7.085714285714285,0.13854299180861335
7.2,0.13990923987546636
7.314285714285714,0.14149858298029275
7.428571428571428,0.1434193503608439
7.542857142857143,0.14575647731540706
7.657142857142857,0.14855277238519402
7.771428571428571,0.1517987944123739
7.885714285714285,0.15543450421434676
8.0,0.15936367191296608
8.114285714285714,0.1634794862229293
8.228571428571428,0.16769744758802343
8.342857142857143,0.17198992919705794
8.457142857142857,0.17641609939906808
8.571428571428571,0.18114131961991672
8.685714285714285,0.18644153193596968
8.799999999999999,0.19269024004811403
8.914285714285715,0.20032812198373384
9.028571428571428,0.20981776581308106
9.142857142857142,0.22158819780854078
9.257142857142856,0.23597549938412385
9.371428571428572,0.2531666301145429
9.485714285714286,0.2731534167345655
9.6,0.29570253519622297
9.714285714285714,0.3203454356146752
9.828571428571427,0.3463899418854869
9.942857142857143,0.3729531119282422
10.057142857142857,0.39901311028345166
10.17142857142857,0.42347631056220014
10.285714285714285,0.44525444788060864
10.4,0.4633452920177078
10.514285714285714,0.4769091925586489
10.628571428571428,0.485333417952273
10.742857142857142,0.488276983638537
10.857142857142858,0.4856908656075508
10.971428571428572,0.4778118296084161
11.085714285714285,0.4651317995884632
11.2,0.44834781080411584
11.314285714285713,0.42829947002217317
11.428571428571429,0.40590132475145535
11.542857142857143,0.3820769547177061
11.657142857142857,0.35770045874692485
11.77142857142857,0.333549683670305
11.885714285714286,0.31027408323975003
12.0,0.28837836379698845
12.114285714285714,0.2682210211211989
12.228571428571428,0.2500247782201084
12.342857142857142,0.23389439313842536
12.457142857142857,0.21983694870064446
12.571428571428571,0.20778082534424533
12.685714285714285,0.1975917283449483
12.799999999999999,0.18908646699720244
12.914285714285715,0.18204658822316447
13.028571428571428,0.1762337688829806
13.142857142857142,0.171407177066728
13.257142857142856,0.1673407247233158
13.371428571428572,0.16383653265985626
13.485714285714286,0.16073103112061476
13.6,0.15789213552436204
13.714285714285714,0.15520911511767055
13.828571428571427,0.15257971826575537
13.942857142857143,0.14990044463853788
14.057142857142857,0.14706483974961904
14.17142857142857,0.14397162394469723
14.285714285714285,0.14054054229543336
14.4,0.13673059169807944
14.514285714285714,0.13255400802178408
14.628571428571428,0.12808053607889766
14.742857142857142,0.123429572142199
14.857142857142856,0.11875158999358974
14.971428571428572,0.11420348097943477
15.085714285714285,0.1099240319983915
15.2,0.10601536321675972
15.314285714285713,0.10253407325309584
15.428571428571429,0.09949290154872815
15.542857142857143,0.09687087510965879
15.657142857142857,0.09462795436417917
15.77142857142857,0.09271955882445884
15.885714285714284,0.09110704554622046
16.0,0.08976188936717319
16.114285714285714,0.08866342200688714
16.228571428571428,0.08779192901083069
16.34285714285714,0.08712017956244453
16.457142857142856,0.08660678054342826
16.57142857142857,0.08619407148030495
16.685714285714287,0.08581184003371746
16.8,0.08538636420894412
16.914285714285715,0.08485268484534225
17.02857142857143,0.084167028066541
17.142857142857142,0.08331619348400916
17.257142857142856,0.08232150209817052
17.37142857142857,0.08123630800993414
17.485714285714284,0.08013770231767747
17.599999999999998,0.07911442124885393
17.714285714285715,0.07825375511003674
17.82857142857143,0.07763027023956602
17.942857142857143,0.07729845060679039
18.057142857142857,0.07729017018396857
18.17142857142857,0.07761655933781843
18.285714285714285,0.07827268130271563
18.4,0.07924277636248582
18.514285714285712,0.08050382810970091
18.628571428571426,0.08202587186391
18.742857142857144,0.08376865288607052
18.857142857142858,0.08567565859651946
18.97142857142857,0.08766780244332498
19.085714285714285,0.08963972141156168
19.2,0.09146146355960583
19.314285714285713,0.09298721262434585
19.428571428571427,0.0940708502632276
19.54285714285714,0.09458609443077899
19.657142857142855,0.09444731022507584
19.771428571428572,0.09362641870442286
19.885714285714286,0.09216188775781184
20.0,0.0901574363742027
20.114285714285714,0.0877703315570924
20.228571428571428,0.08519135812608472
20.34285714285714,0.08262012565762951
20.457142857142856,0.08024003006157734
20.57142857142857,0.07819690302465765
20.685714285714287,0.07658438560167197
20.8,0.07543767193409733
20.914285714285715,0.07473578285342729
21.02857142857143,0.07441117567177315
21.142857142857142,0.07436444993994996
21.257142857142856,0.07448131460148244
21.37142857142857,0.0746489453483663
21.485714285714284,0.07476939389448818
21.599999999999998,0.07476867491079921
21.714285714285715,0.07460126308234934
21.82857142857143,0.07425063139056809
21.942857142857143,0.07372688676660273
22.057142857142857,0.0730624608087107
22.17142857142857,0.07230638913826648
22.285714285714285,0.07151731072123839
22.4,0.07075525076542828
22.514285714285712,0.0700726224500599
22.628571428571426,0.06950552595333517
22.742857142857144,0.06906697865137063
22.857142857142858,0.06874381085170046
22.97142857142857,0.06849842087082386
23.085714285714285,0.06827549439350022
23.2,0.06801249200222784
23.314285714285713,0.06765163386623835
23.428571428571427,0.06715062911331089
23.54285714285714,0.06648967632503876
23.657142857142855,0.06567322425516987
23.771428571428572,0.06472634920796547
23.885714285714286,0.06368699098453635
24.0,0.06259631082894286
24.114285714285714,0.06148981571571183
24.228571428571428,0.060391534428735134
24.34285714285714,0.059312540276402474
24.457142857142856,0.05825378492812661
24.57142857142857,0.05721193458992673
24.685714285714283,0.05618606619380553
24.8,0.05518293237460079
24.914285714285715,0.054219064353272575
25.02857142857143,0.05331904855678958
25.142857142857142,0.052510529087529956
25.257142857142856,0.0518174690920503
25.37142857142857,0.0512536651152622
25.485714285714284,0.05081834922939479
25.599999999999998,0.05049503176704302
25.71428571428571,0.05025377728386387
25.82857142857143,0.05005616909964179
25.942857142857143,0.04986156681224553
26.057142857142857,0.049633051425949204
26.17142857142857,0.049341699416365424
26.285714285714285,0.04896841695454159
26.4,0.04850330230329662
26.514285714285712,0.04794317207513742
26.628571428571426,0.04728831179255321
26.742857142857144,0.04653960405897339
26.857142857142858,0.04569695806602891
26.97142857142857,0.04475950495781979
27.085714285714285,0.04372747651833039
27.2,0.042605198922803726
27.314285714285713,0.041404327599181494
27.428571428571427,0.04014638490013867
27.54285714285714,0.03886383203111533
27.657142857142855,0.037599242016681966
27.771428571428572,0.036402536947575136
27.885714285714286,0.03532660644919608
28.0,0.03442186677312981
28.114285714285714,0.03373043622736434
28.228571428571428,0.0332806240343344
28.34285714285714,0.03308240390415888
28.457142857142856,0.03312449922328222
28.57142857142857,0.033373631826645815
28.685714285714283,0.033776334896125415
28.8,0.034263455295836985
28.914285714285715,0.0347570643504782
29.02857142857143,0.0351790179459229
29.142857142857142,0.03545997690739947
29.257142857142856,0.03554745863624102
29.37142857142857,0.03541154820995357
29.485714285714284,0.03504727639909335
29.599999999999998,0.03447329825389351
29.71428571428571,0.0337272252541721
29.82857142857143,0.03285859462961643
29.942857142857143,0.03192085024638343
30.057142857142857,0.030963783982313958
30.17142857142857,0.030027657419222788
30.285714285714285,0.029139776818852853
30.4,0.028313753654583586
30.514285714285712,0.027551172024613286
30.628571428571426,0.02684499760819404
30.74285714285714,0.026183852517415243
30.857142857142858,0.025556256085967382
30.97142857142857,0.02495406850979227
31.085714285714285,0.024374624002409084
31.2,0.02382134257993703
31.314285714285713,0.02330290461348788
31.428571428571427,0.022831311178668216
31.54285714285714,0.022419307113470278
31.657142857142855,0.022077705516042757
31.77142857142857,0.021813131090471095
31.885714285714286,0.021626609262143374
32.0,0.021513278277879373
32.114285714285714,0.021463298300665557
32.22857142857143,0.02146378700297012
32.34285714285714,0.021501359195997414
32.457142857142856,0.02156465104147423
32.57142857142857,0.02164614585309512
32.68571428571428,0.02174274991565615
32.8,0.021854897759269035
32.91428571428571,0.02198442078075606
33.028571428571425,0.02213184572443925
33.14285714285714,0.02229403582459947
33.25714285714285,0.022463032997338338
33.371428571428574,0.022626596257421545
33.48571428571429,0.022770371440611795
33.6,0.022881063930947847
33.714285714285715,0.02294962012638113
33.82857142857143,0.022973384902646166
33.94285714285714,0.022956503379808382
34.05714285714286,0.02290837052679906
34.17142857142857,0.022840523227184613
34.285714285714285,0.022762831173821187
34.4,0.022680043940050736
34.51428571428571,0.022589648938882947
34.628571428571426,0.022481636433566043
34.74285714285714,0.02234026661206342
34.857142857142854,0.022147430038350603
34.97142857142857,0.021886814125589557
35.08571428571428,0.021547919823046838
35.199999999999996,0.021129041289623812
35.31428571428572,0.02063859423912833
35.42857142857143,0.020094575880152753
35.542857142857144,0.019522356118037324
35.65714285714286,0.018951334047213185
35.77142857142857,0.01841117292190795
35.885714285714286,0.017928324292419716
36.0,0.01752339103753936
36.114285714285714,0.017209621192812354
36.22857142857143,0.01699254829349382
36.34285714285714,0.016870570996615594
36.457142857142856,0.016836140985745186
36.57142857142857,0.016877215308225144
36.68571428571428,0.016978706929081693
36.8,0.017123793217916634
36.91428571428571,0.01729506685983806
37.028571428571425,0.01747559509250976
37.14285714285714,0.017649967417687772
37.25714285714285,0.01780535917354044
37.371428571428574,0.017932541732784368
37.48571428571429,0.01802666881814733
37.6,0.018087606641379917
37.714285714285715,0.018119589461664087
37.82857142857143,0.018130087847036756
37.94285714285714,0.01812796177693345
38.05714285714286,0.01812119111605092
38.17142857142857,0.018114664566100527
38.285714285714285,0.018108592015910835
38.4,0.018098031729981805
38.51428571428571,0.018073786215720353
38.628571428571426,0.018024570362220712
38.74285714285714,0.017939992715040484
38.857142857142854,0.01781363218140632
38.97142857142857,0.017645427657144636
39.08571428571428,0.01744275378599354
39.199999999999996,0.017219885083127023
39.31428571428571,0.016995950863944627
39.42857142857143,0.01679183768665394
39.542857142857144,0.01662671376505731
39.65714285714286,0.016514892218962577
39.77142857142857,0.016463631364223814
39.885714285714286,0.016472240651398184
40.0,0.016532583472227188
40.114285714285714,0.016630801606521764
40.22857142857143,0.01674987675894492
40.34285714285714,0.01687252363132391
40.457142857142856,0.01698389065106901
40.57142857142857,0.01707362360030665
40.68571428571428,0.01713699871059567
40.8,0.0171750160435126
40.91428571428571,0.01719352044570443
41.028571428571425,0.017201557376925785
41.14285714285714,0.017209264506218444
41.25714285714285,0.017225651574664876
41.371428571428574,0.017256637271511995
41.48571428571429,0.017303690576514836
41.6,0.017363352852289356
41.714285714285715,0.017427783950337356
41.82857142857143,0.017486285108635417
41.94285714285714,0.01752753481424015
42.05714285714286,0.01754208607973539
42.17142857142857,0.01752457558111522
42.285714285714285,0.017475129100669853
42.4,0.017399618211021418
42.51428571428571,0.01730869200193244
42.628571428571426,0.01721580548887218
42.74285714285714,0.017134714342773867
42.857142857142854,0.01707703857036255
42.97142857142857,0.01705048056040031
43.08571428571428,0.017058116858229316
43.199999999999996,0.01709890440820566
43.31428571428571,0.01716921520264538
43.42857142857143,0.01726492028089193
43.542857142857144,0.017383368927179073
43.65714285714286,0.017524616242073344
43.77142857142857,0.01769146195963718
43.885714285714286,0.017888231757098486
44.0,0.018118651711087282
44.114285714285714,0.018383492745894663
44.22857142857143,0.01867876570293849
44.34285714285714,0.01899507233165875
44.457142857142856,0.0193183145083015
44.57142857142857,0.019631484150878887
44.68571428571428,0.019916893033661977
44.8,0.020158107588824477
44.91428571428571,0.02034106877690189
45.028571428571425,0.02045430499426351
45.14285714285714,0.020488593893569287
45.25714285714285,0.02043669368010946
45.37142857142857,0.020293724824755402
45.48571428571429,0.020058454714382157
45.6,0.019735263633879452
45.714285714285715,0.019336154943130093
45.82857142857143,0.01888199055533362
45.94285714285714,0.018402259111527736
46.05714285714286,0.01793306892409541
46.17142857142857,0.017513557624950195
46.285714285714285,0.017181352657626606
46.4,0.016967964844608774
46.51428571428571,0.016894992863270897
46.628571428571426,0.016971785975082906
46.74285714285714,0.017194844751442784
46.857142857142854,0.01754885059625347
46.97142857142857,0.01800891253514022
47.08571428571428,0.018543478819287158
47.199999999999996,0.019117408359401743
47.31428571428571,0.01969490703443725
47.42857142857143,0.020242332966442275
47.542857142857144,0.02073115877231099
47.65714285714286,0.021141541560026882
47.77142857142857,0.02146691843676373
47.885714285714286,0.021719797968956654
48.0,0.021938496443833916
48.114285714285714,0.022194048157051453
48.22857142857143,0.02259597961472825
48.34285714285714,0.023295139308036457
48.457142857142856,0.02448137855555142
48.57142857142857,0.026373699474227068
48.68571428571428,0.029200743977394715
48.8,0.03317050750430165
48.91428571428571,0.03843020485511826
49.028571428571425,0.04502030773212769
49.14285714285714,0.052830416219650136
49.25714285714285,0.06156771578846923
49.37142857142857,0.07074981102469143
49.48571428571429,0.07973137718142345
49.6,0.0877678675104629
49.714285714285715,0.09411042603979868
49.82857142857143,0.09811660974837884
49.94285714285714,0.09935473776007533
50.05714285714286,0.09767846165818356
50.17142857142857,0.09325363798276767
50.285714285714285,0.08653059152386669
50.4,0.07816813089201771
50.51428571428571,0.06892707131996605
50.628571428571426,0.05955707880992898
50.74285714285714,0.05069988515883765
50.857142857142854,0.04282523120436539
50.97142857142857,0.036205997033514424
51.08571428571428,0.03092921355548846
51.199999999999996,0.026932716979574403
51.31428571428571,0.02405436651167846
51.42857142857142,0.022081722929115196
51.542857142857144,0.020793557730391033
51.65714285714286,0.019988880131205117
51.77142857142857,0.019502979311701318
51.885714285714286,0.01921254086783644
52.0,0.019033077829863593
52.114285714285714,0.018911995120257145
52.22857142857143,0.018820020096311545
52.34285714285714,0.01874289123782797
52.457142857142856,0.018674390442569237
52.57142857142857,0.01861118121125474
52.68571428571428,0.01854951120134339
52.8,0.01848361571494357
52.91428571428571,0.01840554853683016
53.028571428571425,0.01830610124361093
53.14285714285714,0.018176413701145113
53.25714285714285,0.01800982753594593
53.37142857142857,0.017803520646567286
53.48571428571429,0.017559519464700784
53.6,0.01728483100774914
53.714285714285715,0.016990647147076206
53.82857142857143,0.016690795341821753
53.94285714285714,0.016399778921738165
54.05714285714286,0.01613081801136082
54.17142857142857,0.0158942580374691
54.285714285714285,0.015696584430117747
54.4,0.015540122071688338
54.51428571428571,0.015423359000455859
54.628571428571426,0.015341747707671145
54.74285714285714,0.01528880697210055
54.857142857142854,0.015257353680939183
54.97142857142857,0.015240713298504727
55.08571428571428,0.015233775156619132
