Frequency,PSD
6.057142857142857,1.1227050636228662
6.171428571428571,1.0690508456018155
6.285714285714286,0.9744692929878986
6.3999999999999995,0.8604309983111822
6.514285714285714,0.7512928647284158
6.628571428571428,0.6686900898407808
6.742857142857143,0.6268319748091598
6.857142857142857,0.6288399612555744
6.9714285714285715,0.6655983611789789
7.085714285714285,0.7194949069397614
7.2,0.7730555523901581
7.314285714285714,0.8177030651264477
7.428571428571428,0.8556969212834231
7.542857142857143,0.892673360401139
7.657142857142857,0.9266932609618288
7.771428571428571,0.9443899169442445
7.885714285714285,0.9294797746699128
8.0,0.8770510332633115
8.114285714285714,0.8007704107962766
8.228571428571428,0.7267771072349807
8.342857142857143,0.679970666251169
8.457142857142857,0.6726605857137169
8.571428571428571,0.7006107273814277
8.685714285714285,0.7462491537848769
8.799999999999999,0.7874125347493145
8.914285714285715,0.8083881228943086
9.028571428571428,0.806945822198905
9.142857142857142,0.7921225656668158
9.257142857142856,0.7748543598510453
9.371428571428572,0.7597022768868554
9.485714285714286,0.7437138780779774
9.6,0.7211807492955434
9.714285714285714,0.6890643171227938
9.828571428571427,0.6495527301416459
9.942857142857143,0.6094975829796643
10.057142857142857,0.5778880045718356
10.17142857142857,0.5623353373177232
10.285714285714285,0.5655787293530787
10.4,0.5837243090328786
10.514285714285714,0.6077480335215308
10.628571428571428,0.6276267295899514
10.742857142857142,0.6361192615539234
10.857142857142858,0.629600012280273
10.971428571428572,0.6064216680158373
11.085714285714285,0.565713775032874
11.2,0.5085505119212176
11.314285714285713,0.4401451119502555
11.428571428571429,0.3699171385257941
11.542857142857143,0.3080983721438384
11.657142857142857,0.2610869948184721
11.77142857142857,0.22917415454345527
11.885714285714286,0.2080854888785169
12.0,0.1925234768262271
12.114285714285714,0.17892145136000065
12.228571428571428,0.16618456687731403
12.342857142857142,0.15493129039063597
12.457142857142857,0.14623007469095434
12.571428571428571,0.14061563861885773
12.685714285714285,0.1378534163021228
12.799999999999999,0.1373348684954133
12.914285714285715,0.13840781628908272
13.028571428571428,0.14016502921998608
13.142857142857142,0.14112119248117067
13.257142857142856,0.13959161314326096
13.371428571428572,0.1347896549159045
13.485714285714286,0.12765050281842746
13.6,0.12050195344856726
13.714285714285714,0.11577989204870716
13.828571428571427,0.11470471077683891
13.942857142857143,0.11664600120166375
14.057142857142857,0.11943632415830031
14.17142857142857,0.12054324913357536
14.285714285714285,0.11851659480928253
14.4,0.1137177648638324
14.514285714285714,0.1077891865169106
14.628571428571428,0.10248369280345801
14.742857142857142,0.09898179030338997
14.857142857142856,0.09797993407417885
14.971428571428572,0.09978358528224783
15.085714285714285,0.1038457871820489
15.2,0.10833437820645643
15.314285714285713,0.11069294001323476
15.428571428571429,0.109093085157164
15.542857142857143,0.10350927381039962
15.657142857142857,0.09545570274121201
15.77142857142857,0.08682537992083617
15.885714285714284,0.07898754566250177
16.0,0.07264047750121924
16.114285714285714,0.06802769696240293
16.228571428571428,0.06509615711965037
16.34285714285714,0.06361652091105549
16.457142857142856,0.06335471580872654
16.57142857142857,0.0641630305067193
16.685714285714287,0.06589918677678304
16.8,0.06832396460624898
16.914285714285715,0.07112822751070841
17.02857142857143,0.07401399315866014
17.142857142857142,0.07668314951418029
17.257142857142856,0.07874591865776466
17.37142857142857,0.07968013709381902
17.485714285714284,0.07892720961398676
17.599999999999998,0.07612472759486588
17.714285714285715,0.07140744185053313
17.82857142857143,0.0655943367530352
17.942857142857143,0.0600103905971358
18.057142857142857,0.05589575365408596
18.17142857142857,0.053766023343357935
18.285714285714285,0.05324046625114072
18.4,0.053473801303662964
18.514285714285712,0.05378048627455474
18.628571428571426,0.0539270155795884
18.742857142857144,0.05397472950872493
18.857142857142858,0.053986655133498276
18.97142857142857,0.053919691629274694
19.085714285714285,0.053708910705079244
19.2,0.053348747772372265
19.314285714285713,0.05287125998744
19.428571428571427,0.05228197351308982
19.54285714285714,0.051517396638098775
19.657142857142855,0.05043786591771678
19.771428571428572,0.04889875204044821
19.885714285714286,0.04692473476239834
20.0,0.04486004176674499
20.114285714285714,0.043300330711302376
20.228571428571428,0.042787003813500174
20.34285714285714,0.0434683946065497
20.457142857142856,0.04497161420205596
20.57142857142857,0.04659241148373976
20.685714285714287,0.04770629895720317
20.8,0.048125473396794266
20.914285714285715,0.048116527886941034
21.02857142857143,0.04805003737381798
21.142857142857142,0.047995063855053324
21.257142857142856,0.0476346427303818
21.37142857142857,0.04655824514711954
21.485714285714284,0.044629093580673185
21.599999999999998,0.04210689045343403
21.714285714285715,0.03948457350510888
21.82857142857143,0.037226955945501114
21.942857142857143,0.03559208751497082
22.057142857142857,0.0345884280507992
22.17142857142857,0.034038968899784125
22.285714285714285,0.033697810556529484
22.4,0.03334760180978635
22.514285714285712,0.03282653759896306
22.628571428571426,0.03200841938678198
22.742857142857144,0.030803986876185963
22.857142857142858,0.029205519199313607
22.97142857142857,0.027328413785404286
23.085714285714285,0.025398975434557918
23.2,0.023680409960033007
23.314285714285713,0.02236461298440948
23.428571428571427,0.021483972828378897
23.54285714285714,0.020912477163363318
23.657142857142855,0.02047704035121115
23.771428571428572,0.020095879676118457
23.885714285714286,0.019824503604057256
24.0,0.019785098938422292
24.114285714285714,0.020061506719006843
24.228571428571428,0.020634188550888208
24.34285714285714,0.021365277617135855
24.457142857142856,0.02203643661311388
24.57142857142857,0.022455895373180473
24.685714285714283,0.022588268657949724
24.8,0.022583419696973327
24.914285714285715,0.022645985327389703
25.02857142857143,0.022863502393710048
25.142857142857142,0.023163290084119374
25.257142857142856,0.023408573323751986
25.37142857142857,0.023495986974679882
25.485714285714284,0.023373674040621302
25.599999999999998,0.023028559483719457
25.71428571428571,0.02248759997643672
25.82857142857143,0.021802678024483223
25.942857142857143,0.02100754860101511
26.057142857142857,0.020108433690329445
26.17142857142857,0.019148155976454674
26.285714285714285,0.018273624858043156
26.4,0.01769244962539025
26.514285714285712,0.017512106008198237
26.628571428571426,0.01760916855350574
26.742857142857144,0.01768506993466079
26.857142857142858,0.017486096171732874
26.97142857142857,0.016992689024510753
27.085714285714285,0.01641885023897842
27.2,0.016051374926449785
27.314285714285713,0.01607430905295915
27.428571428571427,0.01647993159646568
27.54285714285714,0.017083867993369892
27.657142857142855,0.01762958542691676
27.771428571428572,0.017934186652749935
27.885714285714286,0.017972528034763825
28.0,0.017825108069446885
28.114285714285714,0.017555210664798516
28.228571428571428,0.01716213131523868
28.34285714285714,0.016653382077812855
28.457142857142856,0.01612620503101619
28.57142857142857,0.01574981831740281
28.685714285714283,0.01566857837066404
28.8,0.015921827453772738
28.914285714285715,0.016431091335814232
29.02857142857143,0.017031342312954778
29.142857142857142,0.01751126022506024
29.257142857142856,0.017665309215877924
29.37142857142857,0.017371340923114553
29.485714285714284,0.01665859054726055
29.599999999999998,0.01569391417526905
29.71428571428571,0.014674176041136919
29.82857142857143,0.013718772826807137
29.942857142857143,0.012862081529918131
30.057142857142857,0.012128372991341778
30.17142857142857,0.011583373693108015
30.285714285714285,0.011303859106546611
30.4,0.011308625235017434
30.514285714285712,0.011524425528668723
30.628571428571426,0.011814002051495107
30.74285714285714,0.012042684544649459
30.857142857142858,0.012138833131268957
30.97142857142857,0.012107294011315089
31.085714285714285,0.011988601613983716
31.2,0.011806719420053551
31.314285714285713,0.011560922206522628
31.428571428571427,0.011267686076782177
31.54285714285714,0.011000926021660612
31.657142857142855,0.010879777659248788
31.77142857142857,0.011005535971994947
31.885714285714286,0.011394534603200305
32.0,0.011953819196798157
32.114285714285714,0.012511157530276727
32.22857142857143,0.012877053535118334
32.34285714285714,0.012913379535428447
32.457142857142856,0.012599393455804199
32.57142857142857,0.012077815154651826
32.68571428571428,0.011628980876015188
32.8,0.011533032487102681
32.91428571428571,0.011881313783529902
33.028571428571425,0.012489252450332049
33.14285714285714,0.013005270609390138
33.25714285714285,0.013137103125546216
33.371428571428574,0.012818006707502222
33.48571428571429,0.012207507091623519
33.6,0.01155951124525041
33.714285714285715,0.011061214437560049
33.82857142857143,0.010738414672907651
33.94285714285714,0.010478221535040196
34.05714285714286,0.010146482508136547
34.17142857142857,0.00970398016209294
34.285714285714285,0.009229137176255378
34.4,0.0088486813813949
34.51428571428571,0.008658613712093425
34.628571428571426,0.00869607621614351
34.74285714285714,0.008944941042187177
34.857142857142854,0.009335640109576642
34.97142857142857,0.00974842300827286
35.08571428571428,0.010054613094707596
35.199999999999996,0.010181041521696493
35.31428571428572,0.010135345245300898
35.42857142857143,0.009968194850268413
35.542857142857144,0.009724368382656027
35.65714285714286,0.009438086423689512
35.77142857142857,0.009158045970561362
35.885714285714286,0.008947958117596579
36.0,0.008849676841025946
36.114285714285714,0.008854426076549331
36.22857142857143,0.008924452422646683
36.34285714285714,0.00904621872172229
36.457142857142856,0.009251626011917723
36.57142857142857,0.009574162776589833
36.68571428571428,0.009982140318182476
36.8,0.010362002292468406
36.91428571428571,0.01057319749715546
37.028571428571425,0.010524523647568952
37.14285714285714,0.010211090903644676
37.25714285714285,0.009700953129336323
37.371428571428574,0.009102097851338095
37.48571428571429,0.008532746219661849
37.6,0.008091989439238646
37.714285714285715,0.007828525295040294
37.82857142857143,0.00772578963516258
37.94285714285714,0.007721909943053099
38.05714285714286,0.007753068606207851
38.17142857142857,0.007785860631607488
38.285714285714285,0.00781867432309734
38.4,0.007864579941165644
38.51428571428571,0.007939260893212558
38.628571428571426,0.00806160759338959
38.74285714285714,0.008256137004563058
38.857142857142854,0.008542284719191969
38.97142857142857,0.008908231755121248
39.08571428571428,0.009290169295125458
39.199999999999996,0.009587337628216022
39.31428571428571,0.009714426144926869
39.42857142857143,0.009650462739540445
39.542857142857144,0.009443876228157153
39.65714285714286,0.009179658067721207
39.77142857142857,0.00894293930516991
39.885714285714286,0.00879216537425334
40.0,0.00873302955602872
40.114285714285714,0.008704701054055682
40.22857142857143,0.008611296333530097
40.34285714285714,0.008394575171315961
40.457142857142856,0.008084063876782607
40.57142857142857,0.007770777870057706
40.68571428571428,0.007532464666077878
40.8,0.007387305404146463
40.91428571428571,0.007309669593999575
41.028571428571425,0.007271926776627018
41.14285714285714,0.007266797696234366
41.25714285714285,0.007305353645969234
41.371428571428574,0.007407684201978234
41.48571428571429,0.007588039512275226
41.6,0.007828996286778158
41.714285714285715,0.008062557395580662
41.82857142857143,0.008189610153953735
41.94285714285714,0.008136797714837472
42.05714285714286,0.007905609809620505
42.17142857142857,0.007571824364945126
42.285714285714285,0.007241195600913021
42.4,0.007000589794527079
42.51428571428571,0.006893781032238554
42.628571428571426,0.006924779106777657
42.74285714285714,0.007075499400866448
42.857142857142854,0.007318604169351026
42.97142857142857,0.007612122785584084
43.08571428571428,0.007885593427084014
43.199999999999996,0.008047209332896767
43.31428571428571,0.008025154582223977
43.42857142857143,0.007814111202521871
43.542857142857144,0.007482983481258274
43.65714285714286,0.007136146754769473
43.77142857142857,0.006864422828787947
43.885714285714286,0.006721599477306878
44.0,0.006726239021298741
44.114285714285714,0.00686621577815412
44.22857142857143,0.007096751341706752
44.34285714285714,0.007345512717254681
44.457142857142856,0.007536837836569259
44.57142857142857,0.007622525648806718
44.68571428571428,0.007593221427289386
44.8,0.007464896864127091
44.91428571428571,0.007264175161255151
45.028571428571425,0.007031621579298078
45.14285714285714,0.0068284207571401405
45.25714285714285,0.006720042815532909
45.37142857142857,0.006741261794087745
45.48571428571429,0.006876400822496344
45.6,0.007073786497355842
45.714285714285715,0.00727627874065068
45.82857142857143,0.0074412606151033804
45.94285714285714,0.007545155547764377
46.05714285714286,0.00757935587455208
46.17142857142857,0.00753864797312671
46.285714285714285,0.007408140508844931
46.4,0.007167327888417769
46.51428571428571,0.006816606499595902
46.628571428571426,0.006400423063993047
46.74285714285714,0.005999610646906195
46.857142857142854,0.005698146355908684
46.97142857142857,0.005550086268065551
47.08571428571428,0.005561857248198638
47.199999999999996,0.00569277803378133
47.31428571428571,0.005876423281969221
47.42857142857143,0.006056056681086988
47.542857142857144,0.006208659258718089
47.65714285714286,0.0063370406609956735
47.77142857142857,0.006442580049946163
47.885714285714286,0.006511171078357748
48.0,0.006527306624956649
48.114285714285714,0.006499807631653552
48.22857142857143,0.006471065844451898
48.34285714285714,0.006497710868321778
48.457142857142856,0.006617906260728344
48.57142857142857,0.006833164789130522
48.68571428571428,0.0071185273720291735
48.8,0.007453169395146812
48.91428571428571,0.007864077425672956
49.028571428571425,0.008497738274476984
49.14285714285714,0.009734027507329409
49.25714285714285,0.012280079626668619
49.37142857142857,0.017050868114011127
49.48571428571429,0.024628598282981196
49.6,0.03441529775375422
49.714285714285715,0.044143425640437405
49.82857142857143,0.050536932937947886
49.94285714285714,0.051075539423858576
50.05714285714286,0.045608057893437935
50.17142857142857,0.03642360140778647
50.285714285714285,0.026733045458594614
50.4,0.018903414969650253
50.51428571428571,0.0137274767312754
50.628571428571426,0.010825720811791648
50.74285714285714,0.009420868284790418
50.857142857142854,0.008843812295414383
50.97142857142857,0.008667631115479246
51.08571428571428,0.008655148835113955
51.199999999999996,0.008677102884268801
51.31428571428571,0.008658938309475204
51.42857142857142,0.008564519950172059
51.542857142857144,0.008398192360549877
51.65714285714286,0.00819315157727406
51.77142857142857,0.007977338526232072
51.885714285714286,0.00774732380072473
52.0,0.00748185123308919
52.114285714285714,0.00718322591205786
52.22857142857143,0.006901501132758266
52.34285714285714,0.006714068307801489
52.457142857142856,0.006676704770591532
52.57142857142857,0.006783579968730624
52.68571428571428,0.006963353540094091
52.8,0.007115140756602127
52.91428571428571,0.007163215406958816
53.028571428571425,0.007094001986053804
53.14285714285714,0.006952219058114276
53.25714285714285,0.006808201141562004
53.37142857142857,0.006725686520652145
53.48571428571429,0.006742292887561923
53.6,0.0068574751673462775
53.714285714285715,0.007032323461156985
53.82857142857143,0.00721487108260923
53.94285714285714,0.007379083161923731
54.05714285714286,0.007534644215096543
54.17142857142857,0.007688093759231303
54.285714285714285,0.00780032659561337
54.4,0.007801947080021954
54.51428571428571,0.007660690419752475
54.628571428571426,0.007426659553746074
54.74285714285714,0.007201968477777182
54.857142857142854,0.007064744805041968
54.97142857142857,0.007021231103797175
55.08571428571428,0.0070228836231825235
