Frequency,PSD
6.0,0.5061932672551016
6.08,0.5062145518437654
6.16,0.506269641858528
6.24,0.5063826884361473
6.32,0.5065877679274565
6.4,0.506926508755373
6.48,0.5074452562966393
6.5600000000000005,0.508192025372328
6.640000000000001,0.5092135127421196
6.72,0.5105524405636872
6.8,0.5122454742182891
6.88,0.5143219046080537
6.96,0.5168032091265289
7.04,0.5197035130202176
7.12,0.5230308724772599
7.2,0.526789203127268
7.28,0.5309805941543134
7.36,0.5356076897439679
7.44,0.5406757948132778
7.5200000000000005,0.5461943761358014
7.6000000000000005,0.5521776838458579
7.68,0.5586443078091687
7.76,0.5656155998189044
7.84,0.5731130236869109
7.92,0.5811546264957707
8.0,0.5897509405441769
8.08,0.5989007132119402
8.16,0.6085869104620701
8.24,0.618773442615418
8.32,0.6294030169725422
8.4,0.6403964344855951
8.48,0.6516535252798681
8.56,0.6630557723389316
8.64,0.6744705184248195
8.72,0.6857565035159929
8.8,0.6967703532648352
8.88,0.7073735456490416
8.96,0.7174393322200725
9.040000000000001,0.7268590869866263
9.120000000000001,0.7355476001154042
9.200000000000001,0.7434469206291773
9.28,0.7505284732093984
9.36,0.7567933168452521
9.44,0.7622705632528544
9.52,0.767014116218523
9.6,0.7710980161027065
9.68,0.7746107662456547
9.76,0.7776490733542718
9.84,0.7803114499147865
9.92,0.7826921053712594
10.0,0.7848755000002327
10.08,0.7869318594235859
10.16,0.788913858074176
10.24,0.7908545860512993
10.32,0.7927668237618075
10.4,0.7946435685488134
10.48,0.7964596907921552
10.56,0.7981745451190965
10.64,0.7997353250621937
10.72,0.8010809254047859
10.8,0.8021460639491538
10.88,0.8028654122346419
10.96,0.8031774921877254
11.040000000000001,0.8030281128565138
11.120000000000001,0.8023731487553142
11.200000000000001,0.801180499384649
11.28,0.7994311181045148
11.36,0.7971190565932413
11.44,0.7942505361509915
11.52,0.7908421252487148
11.6,0.7869181689729899
11.68,0.782507674710788
11.76,0.7776409039099695
11.84,0.7723459471604378
11.92,0.7666455657477466
12.0,0.760554565807824
12.08,0.7540779320992945
12.16,0.7472098902937406
12.24,0.7399339945680118
12.32,0.7322242575109884
12.4,0.72404725887166
12.48,0.7153650952181891
12.56,0.7061389699608176
12.64,0.696333176738688
12.72,0.685919201405635
12.8,0.6748796594631928
12.88,0.6632117958625452
12.96,0.6509303005223064
13.040000000000001,0.6380692328966344
13.120000000000001,0.6246828994966671
13.200000000000001,0.6108455866051539
13.280000000000001,0.5966501140495142
13.36,0.5822052426088418
13.44,0.5676320352598242
13.52,0.5530593385532352
13.6,0.5386186118911775
13.68,0.5244383855204883
13.76,0.5106386681786544
13.84,0.49732564775510757
13.92,0.48458702866562786
14.0,0.4724883246729473
14.08,0.4610703744296023
14.16,0.4503482705458307
14.24,0.4403117959587889
14.32,0.4309273511172913
14.4,0.4221412415588347
14.48,0.4138840886133097
14.56,0.4060760368960547
14.64,0.39863237015750624
14.72,0.39146911845340027
14.8,0.3845082474474625
14.88,0.3776820639858494
14.96,0.37093654615475813
15.040000000000001,0.36423340302223134
15.120000000000001,0.3575507792988575
15.200000000000001,0.3508826325558589
15.280000000000001,0.34423691518481686
15.36,0.33763278125688034
15.44,0.33109710339973286
15.52,0.32466062297662523
15.6,0.3183540671223731
15.68,0.3122045498660846
15.76,0.30623253487389057
15.84,0.3004495788687198
15.92,0.2948570029482395
16.0,0.289445559621909
16.080000000000002,0.2841960822524223
16.16,0.2790810263324467
16.240000000000002,0.2740667438698919
16.32,0.2691162777251419
16.4,0.2641924258730629
16.48,0.25926080902107856
16.56,0.25429268022203155
16.64,0.2492672418805803
16.72,0.24417328187609882
16.8,0.23901000261723745
16.88,0.23378698929498273
16.96,0.22852333981653683
17.04,0.22324605172715584
17.12,0.21798782391198251
17.2,0.21278447706857723
17.28,0.2076722226241301
17.36,0.20268501294645302
17.44,0.19785218684740502
17.52,0.19319658637540793
17.6,0.18873326860790401
17.68,0.1844688757922947
17.76,0.18040166548079217
17.84,0.17652214567644375
17.92,0.17281421378869127
18.0,0.1692566660701842
18.080000000000002,0.16582492789658496
18.16,0.16249285450503553
18.240000000000002,0.159234464645575
18.32,0.1560254927768975
18.400000000000002,0.15284467502114293
18.48,0.14967471606643698
18.56,0.1465029150039152
18.64,0.14332145497813173
18.72,0.1401273828267346
18.8,0.13692231995048493
18.88,0.13371195475225792
18.96,0.13050537101284024
19.04,0.12731426675162116
19.12,0.12415211569115064
19.2,0.12103331943261032
19.28,0.11797239353492828
19.36,0.11498322518372427
19.44,0.11207843404833003
19.52,0.10926886110346964
19.6,0.10656320248182062
19.68,0.10396779681239941
19.76,0.10148656521453453
19.84,0.09912109365305857
19.92,0.09687083843651706
20.0,0.09473342809606533
20.080000000000002,0.09270502953571999
20.16,0.09078074384007317
20.240000000000002,0.08895499780810605
20.32,0.08722190111362713
20.400000000000002,0.08557554553461802
20.48,0.08401023115130164
20.56,0.08252061374322181
20.64,0.08110177667468722
20.72,0.07974923826370536
20.8,0.07845891111716607
20.88,0.07722703265687052
20.96,0.07605008593394495
21.04,0.07492472711935126
21.12,0.07384773140290424
21.2,0.07281596331074282
21.28,0.07182637163665602
21.36,0.07087600419328223
21.44,0.06996203414427338
21.52,0.06908178819608152
21.6,0.06823276747430784
21.68,0.0674126542080941
21.76,0.06661930084378767
21.84,0.06585070218602292
21.92,0.06510495486716088
22.0,0.06438021122095369
22.080000000000002,0.0636746360380345
22.16,0.06298637453794545
22.240000000000002,0.06231353831928578
22.32,0.061654213404588376
22.400000000000002,0.06100649129697133
22.48,0.06036852077792568
22.56,0.05973857550431255
22.64,0.059115130660536766
22.72,0.05849694113879539
22.8,0.05788311389920876
22.88,0.05727316807946305
22.96,0.056667077764792684
23.04,0.05606529377296433
23.12,0.05546874210856395
23.2,0.054878797776127815
23.28,0.054297233433359446
23.36,0.053726143050330695
23.44,0.05316784151336285
23.52,0.0526247421545881
23.6,0.052099215598751074
23.68,0.05159343506773022
23.76,0.051109215199795555
23.84,0.05064785323963278
23.92,0.05020998279485556
24.0,0.04979545091246512
24.080000000000002,0.0494032287760692
24.16,0.04903136478397835
24.240000000000002,0.048676986236893774
24.32,0.04833635260120259
24.400000000000002,0.04800495969373777
24.48,0.047677690574444646
24.560000000000002,0.04734900582014093
24.64,0.047013163471831716
24.72,0.04666445744557976
24.8,0.0462974625689616
24.88,0.04590727452245886
24.96,0.04548973362251422
25.04,0.04504162236119492
25.12,0.04456082774222729
25.2,0.04404646063757128
25.28,0.04349892564821301
25.36,0.04291993639085196
25.44,0.042312472898966655
25.52,0.04168068006207954
25.6,0.04102970880006421
25.68,0.040365504930397256
25.76,0.039694554243196796
25.84,0.03902359582504796
25.92,0.03835931874721117
26.0,0.037708059408751146
26.080000000000002,0.037075517705691334
26.16,0.03646650952149112
26.240000000000002,0.03588477073385303
26.32,0.03533282416430729
26.400000000000002,0.034811916031742385
26.48,0.03432202304798875
26.560000000000002,0.03386192593908116
26.64,0.03342934050558324
26.72,0.03302109385635083
26.8,0.032633331480557914
26.88,0.03226174044553583
26.96,0.031901775066058374
27.04,0.03154887352596754
27.12,0.031198656660310665
27.2,0.030847102908229895
27.28,0.030490695872144733
27.36,0.030126542662349477
27.44,0.029752462158986456
27.52,0.02936704258038686
27.6,0.02896966757319387
27.68,0.028560509802849906
27.76,0.028140491103942747
27.84,0.027711208952540034
27.92,0.0272748304993153
28.0,0.0268339576099694
28.080000000000002,0.02639146905622407
28.16,0.02595034878277442
28.240000000000002,0.025513511549107682
28.32,0.025083638717898447
28.400000000000002,0.0246630371393264
28.48,0.02425353274738034
28.560000000000002,0.023856407654275505
28.64,0.023472385458556153
28.72,0.02310166463818418
28.8,0.02274399489189212
28.88,0.022398786779623897
28.96,0.02206524160165216
29.04,0.02174248660317527
29.12,0.02142970053528408
29.2,0.021126216329072862
29.28,0.020831590885342303
29.36,0.020545636283929414
29.44,0.020268411483830715
29.52,0.020000178192904214
29.6,0.019741328466693495
29.68,0.01949229431829214
29.76,0.01925345094117442
29.84,0.019025025027182608
29.92,0.018807018257376604
30.0,0.0185991536593816
30.080000000000002,0.01840084955606757
30.16,0.018211222694235505
30.240000000000002,0.01802911921663764
30.32,0.017853169717793632
30.400000000000002,0.017681862882355303
30.48,0.017513631205076777
30.560000000000002,0.017346941991447665
30.64,0.017180387120331844
30.72,0.017012765756577633
30.8,0.016843155167410022
30.88,0.016670965876331264
30.96,0.01649597847359767
31.04,0.01631836042700001
31.12,0.016138662173465858
31.2,0.015957792622643813
31.28,0.01577697498614185
31.36,0.015597684582458828
31.44,0.015421570974595773
31.52,0.015250367480621082
31.6,0.015085791749948061
31.68,0.014929441700123466
31.76,0.014782691630005314
31.84,0.014646593725735535
31.92,0.01452179040876568
32.0,0.0144084429875267
32.08,0.01430618181053393
32.160000000000004,0.01421408252560444
32.24,0.014130672084867069
32.32,0.014053966777335445
32.4,0.01398154283278521
32.480000000000004,0.013910638080737642
32.56,0.013838280877551023
32.64,0.01376144019752732
32.72,0.013677188630101325
32.8,0.013582868270557928
32.88,0.013476248371625369
32.96,0.013355663339477932
33.04,0.013220120345026884
33.12,0.01306936751946577
33.2,0.012903916338154785
33.28,0.012725015179079511
33.36,0.01253457487853834
33.44,0.012335051031630174
33.52,0.012129291401983038
33.6,0.011920359735501746
33.68,0.011711349204903635
33.76,0.01150519944068707
33.84,0.011304530559089322
33.92,0.011111505849880085
34.0,0.010927732039608062
34.08,0.010754202605882739
34.160000000000004,0.010591285855082596
34.24,0.010438755774744774
34.32,0.010295860387153313
34.4,0.010161419746170764
34.480000000000004,0.010033944021592956
34.56,0.00991176138114864
34.64,0.009793145580276639
34.72,0.009676434184568008
34.800000000000004,0.00956012999533332
34.88,0.00944298030619368
34.96,0.009324030862960643
35.04,0.009202653623398614
35.12,0.009078549445577252
35.2,0.008951728544684637
35.28,0.008822472864494755
35.36,0.008691285368146954
35.44,0.008558831655016398
35.52,0.008425879275056072
35.6,0.008293239680121694
35.68,0.00816171698283359
35.76,0.008032066663574606
35.84,0.00790496616630959
35.92,0.007780998057382729
36.0,0.007660645198660283
36.08,0.007544296316462959
36.160000000000004,0.007432259527708862
36.24,0.007324780887413723
36.32,0.007222064884966217
36.4,0.0071242940355939165
36.480000000000004,0.007031645239014603
36.56,0.006944301320906175
36.64,0.006862457018472046
36.72,0.006786319492566152
36.800000000000004,0.006716104128266967
36.88,0.0066520268343373875
36.96,0.006594294223037677
37.04,0.006543092948757287
37.12,0.006498579158815539
37.2,0.006460868553000927
37.28,0.006430027071612264
37.36,0.0064060618466518
37.44,0.006388911847930475
37.52,0.006378437687123789
37.6,0.006374410311409848
37.68,0.006376498777498289
37.76,0.00638425785833149
37.84,0.006397116784868401
37.92,0.006414370846353555
38.0,0.006435177764500433
38.08,0.0064585606573690675
38.160000000000004,0.006483419004186494
38.24,0.006508548352832802
38.32,0.00653266866404845
38.4,0.006554460279851078
38.480000000000004,0.006572605669489641
38.56,0.006585834465197881
38.64,0.006592968941868827
38.72,0.006592967063382884
38.800000000000004,0.0065849605052536835
38.88,0.0065682856104974634
38.96,0.0065425059471960565
39.04,0.006507425896066358
39.12,0.00646309538946272
39.2,0.006409806455575054
39.28,0.006348082535858654
39.36,0.006278661627615631
39.44,0.006202474189713265
39.52,0.006120616506788844
39.6,0.006034319926869838
39.68,0.005944916163698232
39.76,0.005853798768174654
39.84,0.005762380973505189
39.92,0.005672050417142227
40.0,0.005584121709321928
40.08,0.005499788386237373
40.160000000000004,0.0054200763630600605
40.24,0.005345801484499481
40.32,0.005277534059698323
40.4,0.005215573285752621
40.480000000000004,0.005159934164003118
40.56,0.005110348889404419
40.64,0.005066283781604052
40.72,0.0050269717014129415
40.800000000000004,0.004991458663405474
40.88,0.004958662138580382
40.96,0.004927437469444697
41.04,0.004896648012672222
41.12,0.004865234177018826
41.2,0.004832276496469744
41.28,0.004797048287621224
41.36,0.004759054256833692
41.44,0.004718052573438
41.52,0.004674059300102374
41.6,0.0046273355350505765
41.68,0.004578359027533445
41.76,0.004527783238113458
41.84,0.004476387711025041
41.92,0.004425024124364292
42.0,0.004374562446643336
42.08,0.004325841265100687
42.160000000000004,0.004279625618199253
42.24,0.004236574657026939
42.32,0.00419722029995176
42.4,0.004161956866045222
42.480000000000004,0.004131040605720852
42.56,0.004104597202883027
42.64,0.004082634781354508
42.72,0.004065059749481536
42.800000000000004,0.004051692958017493
42.88,0.004042284084522932
42.96,0.004036522816247409
43.04,0.004034046183953952
43.12,0.004034442193463859
43.2,0.00403725060644065
43.28,0.00404196225082103
43.36,0.00404801853494138
43.44,0.0040548128712003355
43.52,0.004061695492746497
43.6,0.004067982709322609
43.68,0.004072971059976786
43.76,0.004075956160323694
43.84,0.004076255394696079
43.92,0.0040732330475459246
44.0,0.004066326067665906
44.08,0.00405506845578019
44.160000000000004,0.004039112278415398
44.24,0.004018243531367137
44.32,0.0039923914748882326
44.4,0.003961630593253126
44.480000000000004,0.00392617493635181
44.56,0.0038863652196705935
44.64,0.0038426496335911605
44.72,0.003795559793682091
44.800000000000004,0.0037456836126874976
44.88,0.0036936370679634123
44.96,0.003640036864872402
45.04,0.0035854758601126108
45.12,0.003530502823769592
45.2,0.0034756077098787447
45.28,0.003421213105473985
45.36,0.0033676719771579943
45.44,0.003315271276362773
45.52,0.0032642404463038583
45.6,0.003214763441153727
45.68,0.0031669925630207
45.76,0.0031210622783887053
45.84,0.003077101213701406
45.92,0.003035240754301685
46.0,0.0029956190676640876
46.08,0.002958379907056167
46.160000000000004,0.0029236661739916008
46.24,0.0028916088625215684
46.32,0.0028623126041895687
46.4,0.002835839509646044
46.480000000000004,0.0028121933019007415
46.56,0.002791305815608245
46.64,0.002773027779504108
46.72,0.0027571254154362852
46.800000000000004,0.0027432838149032794
46.88,0.0027311173535670384
46.96,0.0027201866533944387
47.04,0.002710020885847604
47.12,0.002700143610140336
47.2,0.002690099927569172
47.28,0.002679482554925009
47.36,0.0026679544986526332
47.44,0.0026552663391227888
47.52,0.0026412666748568646
47.6,0.0026259049694142035
47.68,0.0026092268111600064
47.76,0.002591362352357199
47.84,0.0025725093544359118
47.92,0.0025529127576595645
48.0,0.0025328429619923647
48.08,0.002512575023970332
48.160000000000004,0.002492370743142295
48.24,0.0024724651619093506
48.32,0.0024530583909940923
48.4,0.002434312975453032
48.480000000000004,0.0024163563195869937
48.56,0.0023992870796264547
48.64,0.0023831839858279996
48.72,0.0023681153249192205
48.800000000000004,0.002354147325811587
48.88,0.002341349940416168
48.96,0.002329798960309156
49.04,0.002319573995565264
49.120000000000005,0.0023107524834195363
49.2,0.0023034005041214396
49.28,0.002297561677735878
49.36,0.0022932457338843346
49.44,0.0022904184470861136
49.52,0.0022889945042374113
49.6,0.002288834538922129
49.68,0.002289747077122723
49.76,0.002291495556424536
49.84,0.002293809980824721
49.92,0.002296402228970044
50.0,0.0022989836074465385
50.08,0.002301282977119779
50.160000000000004,0.0023030637021857585
50.24,0.0023041377788073775
50.32,0.002304375773079584
50.4,0.002303711600954283
50.480000000000004,0.0023021416698952753
50.56,0.002299718423391904
50.64,0.0022965388359930464
50.72,0.0022927288544196713
50.800000000000004,0.002288425133902452
50.88,0.002283755652430393
50.96,0.0022788208840050436
51.04,0.0022736771710007812
51.120000000000005,0.0022683237614156034
51.2,0.002262694684930233
51.28,0.002256656256607037
51.36,0.00225001055006847
51.44,0.0022425047093344204
51.52,0.0022338455085215043
51.6,0.0022237181587016035
51.68,0.0022118080343020395
51.76,0.0021978237727953744
51.84,0.002181520106226747
51.92,0.0021627188148479973
52.0,0.0021413263436937096
52.08,0.0021173468739511554
52.160000000000004,0.002090889966570612
52.24,0.0020621722657135095
52.32,0.002031513134027104
52.4,0.0019993244629560626
52.480000000000004,0.0019660952373154027
52.56,0.0019323717185608814
52.64,0.0018987343363768578
52.72,0.0018657725391595364
52.800000000000004,0.0018340589498756516
52.88,0.0018041242051875916
52.96,0.0017764338232406076
53.04,0.001751368349316427
53.120000000000005,0.0017292078687841834
53.2,0.0017101217549257523
53.28,0.0016941642398742279
53.36,0.0016812760695071333
53.44,0.001671292143090061
53.52,0.001663954667259879
53.6,0.0016589309979277937
53.68,0.0016558350317900147
53.76,0.0016542507694323723
53.84,0.0016537565282029624
53.92,0.0016539482509277744
54.0,0.001654460441611889
54.08,0.0016549834554571079
54.160000000000004,0.0016552761606352458
54.24,0.0016551733469515007
54.32,0.0016545876495226196
54.4,0.0016535061495396262
54.480000000000004,0.001651982176712006
54.56,0.0016501231421419944
54.64,0.00164807545708401
54.72,0.0016460077322209767
54.800000000000004,0.0016440935024449803
54.88,0.0016424946897497694
54.96,0.0016413469130439717
55.04,0.0016407475925485707
