Frequency,PSD
6.0,0.5008156573038456
6.08,0.5011241033007898
6.16,0.501740046255526
6.24,0.5026615906035197
6.32,0.503885899277771
6.4,0.505409201231663
6.48,0.5072268014480402
6.5600000000000005,0.5093330934164533
6.640000000000001,0.5117215740563072
6.72,0.5143848610596573
6.8,0.5173147126236265
6.88,0.5205020495388699
6.96,0.5239369795972193
7.04,0.5276088242785413
7.12,0.5315061476739393
7.2,0.5356167875996567
7.28,0.5399278888532949
7.36,0.5444259385611876
7.44,0.5490968035628168
7.5200000000000005,0.5539257697748752
7.6000000000000005,0.5588975834738454
7.68,0.5639964944315576
7.76,0.569206300832976
7.84,0.5745103958992364
7.92,0.5798918161315729
8.0,0.5853332910830756
8.08,0.5908172945551076
8.16,0.5963260971036118
8.24,0.6018418197274341
8.32,0.6073464885962356
8.4,0.6128220906596801
8.48,0.6182506299625325
8.56,0.6236141844724084
8.64,0.6288949632084483
8.72,0.6340753634406575
8.8,0.6391380277114505
8.88,0.6440659004136807
8.96,0.6488422836436604
9.040000000000001,0.6534508920339892
9.120000000000001,0.6578759062600458
9.200000000000001,0.6621020249063115
9.28,0.6661145143748628
9.36,0.6698992565188691
9.44,0.6734427936891636
9.52,0.6767323708922297
9.6,0.6797559747734261
9.68,0.6825023691600065
9.76,0.6849611269243918
9.84,0.687122657958922
9.92,0.6889782330886103
10.0,0.6905200037876323
10.08,0.6917410176077736
10.16,0.6926352292719896
10.24,0.6931975074327311
10.32,0.69342363714176
10.4,0.6933103181248084
10.48,0.692855158999595
10.56,0.6920566676183519
10.64,0.6909142377551812
10.72,0.6894281323933469
10.8,0.6875994638971907
10.88,0.6854301713771058
10.96,0.6829229955733509
11.040000000000001,0.680081451595121
11.120000000000001,0.6769097998550077
11.200000000000001,0.6734130155357853
11.28,0.6695967569165735
11.36,0.665467332869174
11.44,0.661031669813327
11.52,0.6562972783924679
11.6,0.6512722201000704
11.68,0.6459650740518132
11.76,0.6403849040615637
11.84,0.6345412261406111
11.92,0.628443976500779
12.0,0.6221034801040499
12.08,0.6155304197652087
12.16,0.6087358057806709
12.24,0.6017309460270345
12.32,0.5945274164476887
12.4,0.5871370318256964
12.48,0.5795718167265959
12.56,0.5718439764861042
12.64,0.5639658681150588
12.72,0.5559499709973825
12.8,0.5478088572661728
12.88,0.5395551617579399
12.96,0.5312015514650641
13.040000000000001,0.5227606944311567
13.120000000000001,0.5142452280624595
13.200000000000001,0.5056677268599592
13.280000000000001,0.49704066961062193
13.36,0.4883764061111945
13.44,0.4796871235333816
13.52,0.47098481257402375
13.6,0.46228123356712253
13.68,0.45358788276542106
13.76,0.44491595902679787
13.84,0.43627633116430253
13.92,0.42767950623750667
14.0,0.41913559907647496
14.08,0.410654303337562
14.16,0.40224486439217005
14.24,0.39391605434530974
14.32,0.3856761494702994
14.4,0.3775329103292696
14.48,0.36949356482655626
14.56,0.36156479441391337
14.64,0.3537527236332252
14.72,0.3460629131446372
14.8,0.3385003563464364
14.88,0.3310694796483521
14.96,0.3237741464130671
15.040000000000001,0.3166176645324806
15.120000000000001,0.3096027975565958
15.200000000000001,0.3027317792447101
15.280000000000001,0.29600633136181165
15.36,0.28942768449861367
15.44,0.2829966016523371
15.52,0.2767134042680023
15.6,0.2705780004072889
15.68,0.26458991468464055
15.76,0.25874831958872435
15.84,0.25305206779202805
15.92,0.24749972504259418
16.0,0.24208960322979567
16.080000000000002,0.23681979322071625
16.16,0.23168819707499366
16.240000000000002,0.22669255926373394
16.32,0.22183049654191392
16.4,0.21709952615317094
16.48,0.2124970920803973
16.56,0.20802058909451948
16.64,0.20366738439645787
16.72,0.19943483669275217
16.8,0.19532031259283578
16.88,0.19132120026455113
16.96,0.18743492033330592
17.04,0.18365893405838757
17.12,0.17999074886645283
17.2,0.17642792136629165
17.28,0.17296805800977175
17.36,0.1696088136007262
17.44,0.1663478878857658
17.52,0.16318302048805713
17.6,0.16011198446654457
17.68,0.15713257879860107
17.76,0.1542426200934357
17.84,0.15143993384672605
17.92,0.14872234554386443
18.0,0.1460876719101511
18.080000000000002,0.14353371259144973
18.16,0.14105824252869978
18.240000000000002,0.1386590052647267
18.32,0.13633370739261744
18.400000000000002,0.13408001432220615
18.48,0.13189554750568297
18.56,0.1297778832257883
18.64,0.12772455301129362
18.72,0.125733045705339
18.8,0.12380081117350887
18.88,0.12192526560107642
18.96,0.12010379829341425
19.04,0.11833377986080876
19.12,0.11661257163950847
19.2,0.11493753617527643
19.28,0.1133060485744871
19.36,0.11171550851122505
19.44,0.11016335266715205
19.52,0.10864706737424301
19.6,0.10716420122881457
19.68,0.10571237744854377
19.76,0.10428930575212658
19.84,0.10289279355359202
19.92,0.10152075627965465
20.0,0.10017122663838021
20.080000000000002,0.09884236269033857
20.16,0.09753245459870999
20.240000000000002,0.09623992996189853
20.32,0.0949633576604424
20.400000000000002,0.09370145017874656
20.48,0.09245306439077447
20.56,0.09121720082672025
20.64,0.08999300146426847
20.72,0.088779746112822
20.8,0.08757684748160233
20.88,0.08638384504239471
20.96,0.0852003978146424
21.04,0.08402627621433509
21.12,0.08286135311856792
21.2,0.08170559430469063
21.28,0.08055904842662787
21.36,0.07942183669134478
21.44,0.07829414239569162
21.52,0.07717620047821415
21.6,0.0760682872322415
21.68,0.07497071031596811
21.76,0.0738837991826809
21.84,0.07280789604012802
21.92,0.07174334743266038
22.0,0.07069049652359426
22.080000000000002,0.06964967613863508
22.16,0.068621202614523
22.240000000000002,0.06760537048067156
22.32,0.06660244798579518
22.400000000000002,0.06561267346661426
22.48,0.06463625254197607
22.56,0.06367335610330106
22.64,0.06272411906133388
22.72,0.061788639799863765
22.8,0.06086698027944011
22.88,0.05995916672816709
22.96,0.059065190852436826
23.04,0.05818501149784673
23.12,0.05731855668952261
23.2,0.05646572598146978
23.28,0.05562639304629669
23.36,0.05480040843953666
23.44,0.053987602476647904
23.52,0.05318778816545652
23.6,0.052400764142104386
23.68,0.051626317564320706
23.76,0.050864226921868635
23.84,0.0501142647301532
23.92,0.04937620007907866
24.0,0.048649801015163044
24.080000000000002,0.04793483674053013
24.16,0.0472310796176223
24.240000000000002,0.046538306973210035
24.32,0.045856302699468096
24.400000000000002,0.04518485865350204
24.48,0.044523775859714114
24.560000000000002,0.043872865521809204
24.64,0.04323194985305728
24.72,0.04260086273468983
24.8,0.041979450213061625
24.88,0.041367570846498204
24.96,0.04076509591265194
25.04,0.04017190948676182
25.12,0.03958790840053846
25.2,0.03901300209054029
25.28,0.03844711234394733
25.36,0.03789017294863904
25.44,0.037342129253514725
25.52,0.03680293764409829
25.6,0.03627256493770528
25.68,0.03575098770185959
25.76,0.03523819149922932
25.84,0.034734170062166995
25.92,0.034238924399953866
26.0,0.03375246184208754
26.080000000000002,0.033274795021381406
26.16,0.03280594080126605
26.240000000000002,0.032345919152442594
26.32,0.0318947519849211
26.400000000000002,0.03145246194244256
26.48,0.03101907116726652
26.560000000000002,0.030594600044314732
26.64,0.030179065934582
26.72,0.02977248190859387
26.8,0.029374855491402493
26.88,0.028986187431189914
26.96,0.028606470503911997
27.04,0.028235688366603846
27.12,0.02787381447190706
27.2,0.02752081105610525
27.28,0.027176628212454652
27.36,0.02684120306087342
27.44,0.026514459024119884
27.52,0.026196305219496095
27.6,0.025886635973831205
27.68,0.025585330468115144
27.76,0.025292252516657742
27.84,0.025007250484099987
27.92,0.024730157342027735
28.0,0.02446079086536916
28.080000000000002,0.024198953967226572
28.16,0.023944435169340028
28.240000000000002,0.023697009204005238
28.32,0.02345643774202935
28.400000000000002,0.02322247024017665
28.48,0.022994844900586005
28.560000000000002,0.02277328973380042
28.64,0.022557523716363027
28.72,0.02234725803337808
28.8,0.022142197396012826
28.88,0.0219420414236123
28.96,0.021746486079878245
29.04,0.021555225152449203
29.12,0.02136795176514045
29.2,0.021184359912084845
29.28,0.02100414600302232
29.36,0.020827010409004348
29.44,0.020652658997793793
29.52,0.020480804648264763
29.6,0.02031116873310554
29.68,0.02014348255913005
29.76,0.01997748875449676
29.84,0.01981294259214412
29.92,0.019649613238773317
30.0,0.019487284918781853
30.080000000000002,0.019325757982678334
30.16,0.01916484986971566
30.240000000000002,0.019004395954796246
30.32,0.018844250270140972
30.400000000000002,0.018684286092791887
30.48,0.018524396389769174
30.560000000000002,0.018364494113620247
30.64,0.01820451234219498
30.72,0.018044404257780696
30.8,0.01788414296218704
30.88,0.017723721126021955
30.96,0.017563150472193853
31.04,0.01740246109560362
31.12,0.017241700623027538
31.2,0.017080933219292754
31.28,0.01692023844797987
31.36,0.01675970999701313
31.44,0.0165994542815597
31.52,0.016439588938621897
31.6,0.01628024122952696
31.68,0.016121546368133812
31.76,0.01596364579397713
31.84,0.015806685410686153
31.92,0.015650813810850085
32.0,0.015496180508998716
32.08,0.015342934204544039
32.160000000000004,0.015191221096346985
32.24,0.015041183270049096
32.32,0.01489295717845923
32.4,0.014746672234098597
32.480000000000004,0.01460244953154199
32.56,0.014460400715457027
32.64,0.014320627008282922
32.72,0.014183218409349963
32.8,0.014048253074966084
32.88,0.013915796886624528
32.96,0.013785903212096258
33.04,0.013658612861764589
33.12,0.013533954240232078
33.2,0.013411943690989428
33.28,0.013292586029831722
33.36,0.013175875260770194
33.44,0.013061795466450095
33.52,0.012950321863537138
33.6,0.012841422012219258
33.68,0.012735057167863006
33.76,0.012631183761958577
33.84,0.012529754998779744
33.92,0.012430722553646606
34.0,0.012334038358263612
34.08,0.01223965645831211
34.160000000000004,0.012147534928236909
34.24,0.012057637827949219
34.32,0.01196993718594673
34.4,0.011884414993062215
34.480000000000004,0.011801065190678644
34.56,0.01171989563675117
34.64,0.011640930032329752
34.72,0.011564209790470138
34.800000000000004,0.01148979582844022
34.88,0.01141777026298894
34.96,0.011348237987151184
35.04,0.011281328105650827
35.12,0.011217195204473748
35.2,0.01115602042866891
35.28,0.0110980123409632
35.36,0.011043407532414926
35.44,0.010992470955193002
35.52,0.010945495946706983
35.6,0.010902803913868594
35.68,0.010864743646312913
35.76,0.010831690228061776
35.84,0.010804043518462848
35.92,0.010782226175385896
36.0,0.010766681196675112
36.08,0.010757868959811862
36.160000000000004,0.01075626374467778
36.24,0.010762349730259795
36.32,0.010776616463092326
36.4,0.0107995538031631
36.480000000000004,0.010831646361875894
36.56,0.010873367456338988
36.64,0.01092517261465278
36.72,0.010987492677810413
36.800000000000004,0.01106072655513834
36.88,0.011145233701663957
36.96,0.011241326397151669
37.04,0.011349261917554334
37.12,0.01146923469997171
37.2,0.011601368611620496
37.28,0.011745709441487305
37.36,0.01190221773997007
37.44,0.012070762136623272
37.52,0.012251113268850918
37.6,0.012442938454799043
37.68,0.012645797241590203
37.76,0.012859137955265682
37.84,0.013082295371251922
37.92,0.013314489613821975
38.0,0.013554826379872906
38.08,0.01380229856653187
38.160000000000004,0.014055789363735978
38.24,0.014314076852298602
38.32,0.014575840125344398
38.4,0.014839666926737011
38.480000000000004,0.015104062774691004
38.56,0.01536746151259085
38.64,0.015628237202696148
38.72,0.015884717252405346
38.800000000000004,0.016135196637677984
38.88,0.01637795306462415
38.96,0.016611262888736524
39.04,0.016833417592283222
39.12,0.017042740604498376
39.2,0.01723760423684474
39.28,0.017416446497127955
39.36,0.017577787541934575
39.44,0.01772024552691747
39.52,0.017842551618992144
39.6,0.01794356394352012
39.68,0.01802228025295498
39.76,0.01807784912099839
39.84,0.01810957948776511
39.92,0.018116948406377648
40.0,0.018099606869336732
40.08,0.018057383623380732
40.160000000000004,0.017990286913732067
40.24,0.01789850413200377
40.32,0.01778239937587464
40.4,0.017642508962277547
40.480000000000004,0.017479534968569504
40.56,0.017294336907301623
40.64,0.017087921669165382
40.72,0.01686143189486187
40.800000000000004,0.016616132959562838
40.88,0.01635339877284145
40.96,0.016074696612149768
41.04,0.0157815712188625
41.12,0.015475628392460023
41.2,0.015158518320564423
41.28,0.014831918880336203
41.36,0.014497519140350797
41.44,0.014157003281765699
41.52,0.013812035143687795
41.6,0.01346424358056336
41.68,0.013115208799604058
41.76,0.012766449824234694
41.84,0.012419413205820781
41.92,0.012075463081091666
42.0,0.011735872647211727
42.08,0.011401817100965033
42.160000000000004,0.011074368063466955
42.24,0.010754489487708675
42.32,0.010443035023492676
42.4,0.010140746793304688
42.480000000000004,0.009848255513710286
42.56,0.009566081880209527
42.64,0.009294639119323038
42.72,0.00903423660012552
42.800000000000004,0.008785084388555284
42.88,0.008547298621595896
42.96,0.008320907574779707
43.04,0.008105858295296862
43.12,0.007902023674134116
43.2,0.007709209833921559
43.28,0.007527163714293578
43.36,0.007355580743332243
43.44,0.007194112491772289
43.52,0.007042374215837314
43.6,0.006899952204582286
43.68,0.006766410858136127
43.76,0.006641299434047834
43.84,0.006524158409773459
43.92,0.0064145254199741725
44.0,0.0063119407375661525
44.08,0.006215952277137619
44.160000000000004,0.006126120108352366
44.24,0.0060420204751212864
44.32,0.0059632493235872025
44.4,0.005889425348264803
44.480000000000004,0.00582019257097585
44.56,0.005755222471505355
44.64,0.005694215692208437
44.72,0.005636903341128341
44.800000000000004,0.005583047919635129
44.88,0.005532443901183608
44.96,0.005484917987651078
45.04,0.005440329068898478
45.12,0.005398567909834177
45.2,0.005359556587436875
45.28,0.005323247698027908
45.36,0.005289623352684953
45.44,0.005258693976165213
45.52,0.005230496922161432
45.6,0.005205094915256194
45.68,0.005182574327658399
45.76,0.00516304329678724
45.84,0.005146629688101388
45.92,0.005133478906306655
46.0,0.005123751557284378
46.08,0.005117620962802301
46.160000000000004,0.005115270530329811
46.24,0.0051168909810942
46.32,0.005122677440893
46.4,0.0051328264000945634
46.480000000000004,0.0051475325516893
46.56,0.0051669855191571745
46.64,0.005191366489222457
46.72,0.005220844768208614
46.800000000000004,0.005255574284594219
46.88,0.005295690064399065
46.96,0.005341304710101465
47.04,0.005392504917761439
47.12,0.005449348070808175
47.2,0.005511858952375812
47.28,0.005580026621050185
47.36,0.005653801497260153
47.44,0.005733092709223741
47.52,0.005817765748193874
47.6,0.005907640482687836
47.68,0.0060024895803011125
47.76,0.0061020373835846825
47.84,0.006205959283221273
47.92,0.006313881627398547
48.0,0.006425382200817946
48.08,0.006539991300274946
48.160000000000004,0.006657193426234005
48.24,0.006776429601426208
48.32,0.006897100318317695
48.4,0.007018569107513639
48.480000000000004,0.007140166708912259
48.56,0.007261195816946724
48.64,0.0073809363607121
48.72,0.00749865126943779
48.800000000000004,0.00761359266382081
48.88,0.007725008404453112
48.96,0.007832148920143469
49.04,0.007934274231590991
49.120000000000005,0.008030661079799096
49.2,0.008120610064008809
49.28,0.008203452690907428
49.36,0.008278558235572178
49.44,0.008345340315098412
49.52,0.008403263078178083
49.6,0.008451846918049281
49.68,0.008490673622165053
49.76,0.00851939087955932
49.84,0.008537716076089646
49.92,0.00854543931833424
50.0,0.008542425638731945
50.08,0.008528616347330958
50.160000000000004,0.008504029509020516
50.24,0.008468759539063102
50.32,0.008422975923864252
50.4,0.008366921087905009
50.480000000000004,0.008300907441342355
50.56,0.008225313655675654
50.64,0.008140580226826382
50.72,0.008047204395742798
50.800000000000004,0.007945734506014882
50.88,0.007836763885794192
50.96,0.0077209243474229625
51.04,0.0075988794024801735
51.120000000000005,0.007471317292407232
51.2,0.007338943935460834
51.28,0.007202475889490911
51.36,0.007062633427015455
51.44,0.006920133814390392
51.52,0.0067756848806685335
51.6,0.006629978954193769
51.68,0.006483687236281191
51.76,0.006337454671687462
51.84,0.006191895365238514
51.92,0.006047588583154651
52.0,0.005905075366556094
52.08,0.00576485577357292
52.160000000000004,0.0056273867556322354
52.24,0.0054930806630866524
52.32,0.005362304365536825
52.4,0.005235378963191466
52.480000000000004,0.005112580057507659
52.56,0.00499413854230568
52.64,0.0048802418706172905
52.72,0.004771035747790798
52.800000000000004,0.004666626197824186
52.88,0.004567081947588975
52.96,0.0044724370724491275
53.04,0.004382693846780956
53.120000000000005,0.004297825743946825
53.2,0.0042177805322974335
53.28,0.004142483416667711
53.36,0.004071840178457289
53.44,0.004005740271636636
53.52,0.003944059836755833
53.6,0.0038866646001108236
53.68,0.0038334126305200437
53.76,0.0037841569315472286
53.84,0.0037387478523398347
53.92,0.0036970353054457863
54.0,0.0036588707848784433
54.08,0.0036241091822760904
54.160000000000004,0.003592610403125064
54.24,0.003564240788642664
54.32,0.003538874351989474
54.4,0.0035163938399597862
54.480000000000004,0.003496691633172763
54.56,0.0034796704990335296
54.64,0.003465244212374247
54.72,0.003453338058730527
54.800000000000004,0.003443889234695859
54.88,0.0034368471587692974
54.96,0.0034321737046210652
55.04,0.0034298433668158296
