Frequency,PSD
6.057142857142857,0.2751272522369657
6.171428571428571,0.2578807470480017
6.285714285714286,0.23103512750050126
6.3999999999999995,0.20479335958383682
6.514285714285714,0.18675470761959978
6.628571428571428,0.179953338308806
6.742857142857143,0.18323885527257905
6.857142857142857,0.19261641456607242
6.9714285714285715,0.203140023821119
7.085714285714285,0.21079058452184957
7.2,0.21408179682613732
7.314285714285714,0.21524506080386213
7.428571428571428,0.21929066351161808
7.542857142857143,0.23000086221904872
7.657142857142857,0.24627231047115714
7.771428571428571,0.2630429427839432
7.885714285714285,0.2758440142040525
8.0,0.284210387385194
8.114285714285714,0.2908873705359617
8.228571428571428,0.2979143053257754
8.342857142857143,0.30386862430710515
8.457142857142857,0.30605299879695297
8.571428571428571,0.3063507728231144
8.685714285714285,0.31447412072838654
8.799999999999999,0.34340835485048077
8.914285714285715,0.39949475707893
9.028571428571428,0.47621633717973905
9.142857142857142,0.557483637349698
9.257142857142856,0.6270841126959912
9.371428571428572,0.6783654149465589
9.485714285714286,0.7202269075322072
9.6,0.7731878917099597
9.714285714285714,0.8523176460786508
9.828571428571427,0.949580277063735
9.942857142857143,1.0345524900529703
10.057142857142857,1.074606822499046
10.17142857142857,1.0562633611553736
10.285714285714285,0.9906320690686434
10.4,0.9015904435339217
10.514285714285714,0.8100218478568866
10.628571428571428,0.7280871829426488
10.742857142857142,0.6624895042353314
10.857142857142858,0.6154640193260609
10.971428571428572,0.5818132626859347
11.085714285714285,0.551047137110965
11.2,0.515766957467856
11.314285714285713,0.47585142955316284
11.428571428571429,0.4337490839455186
11.542857142857143,0.3891208050083985
11.657142857142857,0.3402525696875822
11.77142857142857,0.2883971026762664
11.885714285714286,0.23796094954469396
12.0,0.19311738137551437
12.114285714285714,0.15611482868072593
12.228571428571428,0.12825594045599162
12.342857142857142,0.11039243130502611
12.457142857142857,0.10186069796277974
12.571428571428571,0.09980793124056522
12.685714285714285,0.10026642992867313
12.799999999999999,0.10013936591852743
12.914285714285715,0.09829686597960124
13.028571428571428,0.09503061144965012
13.142857142857142,0.09101465019714275
13.257142857142856,0.08706199708597019
13.371428571428572,0.08418331827850259
13.485714285714286,0.08297892652703351
13.6,0.08303760571177249
13.714285714285714,0.0834501721523048
13.828571428571427,0.08370865624740188
13.942857142857143,0.08359079584653412
14.057142857142857,0.08255024008565155
14.17142857142857,0.08011318163704602
14.285714285714285,0.07685504977909585
14.4,0.07413404793427164
14.514285714285714,0.07257950259586017
14.628571428571428,0.07148728238453372
14.742857142857142,0.07017457089749041
14.857142857142856,0.06948971990300254
14.971428571428572,0.07125344567297401
15.085714285714285,0.07611535620835591
15.2,0.08244496322073425
15.314285714285713,0.08756191142415588
15.428571428571429,0.08972257584148492
15.542857142857143,0.08878864124365735
15.657142857142857,0.08569387865474494
15.77142857142857,0.08202624314617304
15.885714285714284,0.07975623405812876
16.0,0.08025600015157507
16.114285714285714,0.08310379390487255
16.228571428571428,0.08632679054025416
16.34285714285714,0.08824384882399341
16.457142857142856,0.08881796644430437
16.57142857142857,0.08899139826817122
16.685714285714287,0.0891770707658217
16.8,0.0888352632473262
16.914285714285715,0.08719693773474466
17.02857142857143,0.08396220015430618
17.142857142857142,0.07941264755481897
17.257142857142856,0.07419509303987154
17.37142857142857,0.06921143038665077
17.485714285714284,0.06564549288383797
17.599999999999998,0.06453586672130093
17.714285714285715,0.06573763458453111
17.82857142857143,0.06752427512886677
17.942857142857143,0.06798728011277881
18.057142857142857,0.067144684868941
18.17142857142857,0.06725304036263696
18.285714285714285,0.07052894502075016
18.4,0.07658624342289051
18.514285714285712,0.08255466274312671
18.628571428571426,0.08582123120414066
18.742857142857144,0.0861875611342895
18.857142857142858,0.08514312993036095
18.97142857142857,0.08366520912073795
19.085714285714285,0.08141915048092237
19.2,0.07791811079546547
19.314285714285713,0.07371219794685017
19.428571428571427,0.07009925092547092
19.54285714285714,0.06796903944423656
19.657142857142855,0.06726340432308144
19.771428571428572,0.06746842760707514
19.885714285714286,0.06829338561851687
20.0,0.06968738705247773
20.114285714285714,0.07123840276884112
20.228571428571428,0.07177184300118278
20.34285714285714,0.06995515025519178
20.457142857142856,0.06558679914175239
20.57142857142857,0.06013286046726786
20.685714285714287,0.05585861095625348
20.8,0.05452335948745803
20.914285714285715,0.0565277661904582
21.02857142857143,0.0605799086947599
21.142857142857142,0.06423213991282403
21.257142857142856,0.06549970462219187
21.37142857142857,0.06427217319457944
21.485714285714284,0.06197072281184612
21.599999999999998,0.05993351276402301
21.714285714285715,0.05836786252016225
21.82857142857143,0.05660516214510407
21.942857142857143,0.053932464705529135
22.057142857142857,0.0502465266793546
22.17142857142857,0.04624618375392989
22.285714285714285,0.04303090824614587
22.4,0.04132079702653017
22.514285714285712,0.040958266083323966
22.628571428571426,0.041121522122255755
22.742857142857144,0.04096192088461151
22.857142857142858,0.04010289251687388
22.97142857142857,0.038747672305877556
23.085714285714285,0.03740286492081538
23.2,0.036376411551047316
23.314285714285713,0.035515279311389134
23.428571428571427,0.03453351043109175
23.54285714285714,0.033493744599559776
23.657142857142855,0.03275429628943413
23.771428571428572,0.03251333016683732
23.885714285714286,0.032605378945735314
24.0,0.03269816255733951
24.114285714285714,0.03257191365515604
24.228571428571428,0.03231521276208945
24.34285714285714,0.03237308881493887
24.457142857142856,0.033320075726303425
24.57142857142857,0.03544969546342754
24.685714285714283,0.03851851973580914
24.8,0.04186191555653007
24.914285714285715,0.04478671281105663
25.02857142857143,0.04689231718860598
25.142857142857142,0.04802612843287929
25.257142857142856,0.04805792619561432
25.37142857142857,0.04691643077388187
25.485714285714284,0.044848782570313744
25.599999999999998,0.04241218573498951
25.71428571428571,0.04007628800840385
25.82857142857143,0.03790749532160592
25.942857142857143,0.03570657032015351
26.057142857142857,0.03336691083755386
26.17142857142857,0.031020659820543514
26.285714285714285,0.02895953935001401
26.4,0.027544286704542748
26.514285714285712,0.02703793746169473
26.628571428571426,0.0273351154469947
26.742857142857144,0.02800323754238692
26.857142857142858,0.028802321318452284
26.97142857142857,0.03002649923007587
27.085714285714285,0.03212862348252281
27.2,0.03509985629332429
27.314285714285713,0.03831316942751095
27.428571428571427,0.04083324549186548
27.54285714285714,0.04184028542947912
27.657142857142855,0.040990014668384624
27.771428571428572,0.0385772367918962
27.885714285714286,0.03538144994956221
28.0,0.03228868587331456
28.114285714285714,0.029929803587337555
28.228571428571428,0.02850730142856636
28.34285714285714,0.027818618980887916
28.457142857142856,0.02740672664451857
28.57142857142857,0.026862076861461623
28.685714285714283,0.026210996469598864
28.8,0.0259827663278683
28.914285714285715,0.026704315035869515
29.02857142857143,0.02829542144060115
29.142857142857142,0.03002356153529385
29.257142857142856,0.031033187801293306
29.37142857142857,0.030942329483724912
29.485714285714284,0.030076066369436383
29.599999999999998,0.029221782982343996
29.71428571428571,0.029080390881346285
29.82857142857143,0.029788909562623745
29.942857142857143,0.030859708402513498
30.057142857142857,0.03157591749429438
30.17142857142857,0.03153584558275588
30.285714285714285,0.030933036168401092
30.4,0.030338041229217325
30.514285714285712,0.03014794810692153
30.628571428571426,0.030277801888439766
30.74285714285714,0.030490375270335802
30.857142857142858,0.030899660956508555
30.97142857142857,0.031835539993599934
31.085714285714285,0.033201303307170534
31.2,0.03432979254698256
31.314285714285713,0.034649522602773444
31.428571428571427,0.03425480389213662
31.54285714285714,0.03365825018029758
31.657142857142855,0.033165542433247604
31.77142857142857,0.03263768838070197
31.885714285714286,0.03172712042097862
32.0,0.030196137576406944
32.114285714285714,0.02806805649751621
32.22857142857143,0.025621622572240096
32.34285714285714,0.023299365097733865
32.457142857142856,0.021571301835699924
32.57142857142857,0.020809887366802032
32.68571428571428,0.02120982771901259
32.8,0.02269137165993938
32.91428571428571,0.02478235289211283
33.028571428571425,0.02668923132924879
33.14285714285714,0.02769636595587977
33.25714285714285,0.027591468090542533
33.371428571428574,0.026675311479124116
33.48571428571429,0.025416335738419067
33.6,0.02420796112628617
33.714285714285715,0.023356168189365978
33.82857142857143,0.02302275070568839
33.94285714285714,0.023091740903304556
34.05714285714286,0.02323925158363612
34.17142857142857,0.02320131810739398
34.285714285714285,0.022909234599026787
34.4,0.022408723670439296
34.51428571428571,0.021787981263575534
34.628571428571426,0.021183328995269347
34.74285714285714,0.020730317880648694
34.857142857142854,0.020478416469699674
34.97142857142857,0.020423747303480295
35.08571428571428,0.020632266897041566
35.199999999999996,0.021251687257877183
35.31428571428572,0.022346267871931665
35.42857142857143,0.023719697499231036
35.542857142857144,0.024927053651948555
35.65714285714286,0.02552602665891541
35.77142857142857,0.02539275115734721
35.885714285714286,0.02478574191072745
36.0,0.02404579827536476
36.114285714285714,0.02328986959864019
36.22857142857143,0.02253486822522567
36.34285714285714,0.022078940414276868
36.457142857142856,0.02248385401376873
36.57142857142857,0.023977228312707974
36.68571428571428,0.025987724430265494
36.8,0.027522698895839505
36.91428571428571,0.0280452228005869
37.028571428571425,0.02785472045599692
37.14285714285714,0.027627664369954147
37.25714285714285,0.027711401268629556
37.371428571428574,0.02786010863463546
37.48571428571429,0.02758762854443486
37.6,0.026740264094051395
37.714285714285715,0.025651183447510217
37.82857142857143,0.02471764066319395
37.94285714285714,0.023967408075345736
38.05714285714286,0.023121606407315073
38.17142857142857,0.021964843828348082
38.285714285714285,0.02056423004360891
38.4,0.019235775074109552
38.51428571428571,0.018422361348481138
38.628571428571426,0.018526919012120793
38.74285714285714,0.01965483248505279
38.857142857142854,0.02140797464545665
38.97142857142857,0.023010026028585963
39.08571428571428,0.023788924111407903
39.199999999999996,0.02361723216087106
39.31428571428571,0.02288696196704742
39.42857142857143,0.022093195735644326
39.542857142857144,0.021487451504103992
39.65714285714286,0.02104811204387523
39.77142857142857,0.020615610878227667
39.885714285714286,0.020021791359504378
40.0,0.01922652774927067
40.114285714285714,0.018432997238742324
40.22857142857143,0.018012344456476922
40.34285714285714,0.018208585363675794
40.457142857142856,0.0189021737321015
40.57142857142857,0.019704609009172577
40.68571428571428,0.020283194597527924
40.8,0.020573191469931865
40.91428571428571,0.020728295014771636
41.028571428571425,0.020961827028670946
41.14285714285714,0.021414225832514133
41.25714285714285,0.022025705259673015
41.371428571428574,0.022485605698468053
41.48571428571429,0.022428547456793593
41.6,0.021779628686264048
41.714285714285715,0.02088446413666579
41.82857142857143,0.020241999548157558
41.94285714285714,0.02006054818501782
42.05714285714286,0.020072328541173433
42.17142857142857,0.019849725284335352
42.285714285714285,0.01930855993316254
42.4,0.018796747632072657
42.51428571428571,0.018692666264098278
42.628571428571426,0.019081540097810733
42.74285714285714,0.01984966208984367
42.857142857142854,0.020867194970430346
42.97142857142857,0.021931604010033703
43.08571428571428,0.022692749599078375
43.199999999999996,0.022853489575354526
43.31428571428571,0.022438928640601593
43.42857142857143,0.021748683383732696
43.542857142857144,0.021035450371857466
43.65714285714286,0.020295983512064686
43.77142857142857,0.01938307308965903
43.885714285714286,0.01829788238411114
44.0,0.017386078849322074
44.114285714285714,0.01723211422812349
44.22857142857143,0.018253825963346786
44.34285714285714,0.02028762418661644
44.457142857142856,0.02255236449587734
44.57142857142857,0.02407973708555144
44.68571428571428,0.024286095132545975
44.8,0.02328289029506447
44.91428571428571,0.02176261916264429
45.028571428571425,0.02054908246564794
45.14285714285714,0.020094290983242308
45.25714285714285,0.02028572743023365
45.37142857142857,0.020681184538825996
45.48571428571429,0.020886750320951365
45.6,0.02074053593055275
45.714285714285715,0.02027610961344403
45.82857142857143,0.019635576699113998
45.94285714285714,0.018991777839942627
46.05714285714286,0.01843971736025078
46.17142857142857,0.01792583736457119
46.285714285714285,0.017324051097218938
46.4,0.016585448347697908
46.51428571428571,0.01579670679308203
46.628571428571426,0.015124685591099921
46.74285714285714,0.014727241477036348
46.857142857142854,0.01467071469965018
46.97142857142857,0.014896782066514265
47.08571428571428,0.015309829895093078
47.199999999999996,0.015919743163854576
47.31428571428571,0.016819322531273065
47.42857142857143,0.01795988876110376
47.542857142857144,0.019033338516646386
47.65714285714286,0.01969502082256989
47.77142857142857,0.019907411817738505
47.885714285714286,0.019991204181724998
48.0,0.02029097703616511
48.114285714285714,0.02079550008326475
48.22857142857143,0.021117242918726895
48.34285714285714,0.020862575473620176
48.457142857142856,0.02000472487741306
48.57142857142857,0.018883159115924447
48.68571428571428,0.01789303949064825
48.8,0.017244623872825854
48.91428571428571,0.017005805569039054
49.028571428571425,0.01730816298374661
49.14285714285714,0.018564183765580035
49.25714285714285,0.02185211070486474
49.37142857142857,0.0297748588795352
49.48571428571429,0.04719136319515458
49.6,0.0794030732775017
49.714285714285715,0.1259306079958301
49.82857142857143,0.17411436513419504
49.94285714285714,0.20230733535039472
50.05714285714286,0.1949876111532106
50.17142857142857,0.1559831752873973
50.285714285714285,0.10494986820992686
50.4,0.06146879336967565
50.51428571428571,0.0338203006302841
50.628571428571426,0.020032621006677628
50.74285714285714,0.014684683460947211
50.857142857142854,0.013486201806156495
50.97142857142857,0.014076993757513326
51.08571428571428,0.015252701544722002
51.199999999999996,0.016330776626138622
51.31428571428571,0.016949553859290686
51.42857142857142,0.017035219744248587
51.542857142857144,0.016727838731080507
51.65714285714286,0.016222868665382455
51.77142857142857,0.01563598554740358
51.885714285714286,0.015023927253922872
52.0,0.01451181463549369
52.114285714285714,0.014323920785000152
52.22857142857143,0.014640777679411797
52.34285714285714,0.015449599613217404
52.457142857142856,0.01655008297627197
52.57142857142857,0.01763979080826035
52.68571428571428,0.018359322528812123
52.8,0.018396595026256374
52.91428571428571,0.01773403633780076
53.028571428571425,0.01677819522142157
53.14285714285714,0.016085456300585756
53.25714285714285,0.0159027873898089
53.37142857142857,0.016027769915906317
53.48571428571429,0.016093729876379238
53.6,0.01590581027491156
53.714285714285715,0.0155184283153529
53.82857142857143,0.01510315792799486
53.94285714285714,0.014804753061591625
54.05714285714286,0.014701419488489381
54.17142857142857,0.014854850044324523
54.285714285714285,0.015322360603579433
54.4,0.016049971080061794
54.51428571428571,0.016786699339297707
54.628571428571426,0.017192819158611282
54.74285714285714,0.01705435156496293
54.857142857142854,0.01640905317518125
54.97142857142857,0.015554078109406061
55.08571428571428,0.01494567906777048
