Frequency,PSD
6.057142857142857,0.13065983852993293
6.171428571428571,0.13374445641771837
6.285714285714286,0.13898274774563218
6.3999999999999995,0.14526716579211757
6.514285714285714,0.15191480605015345
6.628571428571428,0.15852886701597207
6.742857142857143,0.16461111321468436
6.857142857142857,0.16969113505329142
6.9714285714285715,0.17383201304936022
7.085714285714285,0.17766546946269046
7.2,0.18167540079843278
7.314285714285714,0.1855243041527196
7.428571428571428,0.1883249756381209
7.542857142857143,0.18969064948688147
7.657142857142857,0.19045476159759298
7.771428571428571,0.19223885363643392
7.885714285714285,0.19615054796161627
8.0,0.2017043795535603
8.114285714285714,0.2070388430564074
8.228571428571428,0.2105655359259332
8.342857142857143,0.21272021885336972
8.457142857142857,0.21606056548450422
8.571428571428571,0.2236989612790627
8.685714285714285,0.23793135078041583
8.799999999999999,0.26006203465275346
8.914285714285715,0.2902968791664852
9.028571428571428,0.32703672923231797
9.142857142857142,0.36719403590128874
9.257142857142856,0.4087149571207639
9.371428571428572,0.4530401830168367
9.485714285714286,0.5040310414345852
9.6,0.5635490996531412
9.714285714285714,0.6279924489929521
9.828571428571427,0.6892391235433437
9.942857142857143,0.7387336142597928
10.057142857142857,0.7709480837974494
10.17142857142857,0.7846057840399976
10.285714285714285,0.7825636192488138
10.4,0.7705502098490475
10.514285714285714,0.7540249106394549
10.628571428571428,0.7345132166113734
10.742857142857142,0.7087036066350225
10.857142857142858,0.671449813451504
10.971428571428572,0.6200810445053477
11.085714285714285,0.5566202343009348
11.2,0.4867376130165016
11.314285714285713,0.4167506524575826
11.428571428571429,0.3510350341825367
11.542857142857143,0.29156063074182637
11.657142857142857,0.23933081511466725
11.77142857142857,0.1957545036888355
11.885714285714286,0.16230793192760454
12.0,0.13905846201841796
12.114285714285714,0.12397201909966929
12.228571428571428,0.11380620764271758
12.342857142857142,0.10566351146124262
12.457142857142857,0.0980642197332835
12.571428571428571,0.0911235716648168
12.685714285714285,0.085833894580403
12.799999999999999,0.08281150251036552
12.914285714285715,0.08144580966026134
13.028571428571428,0.08029078523462582
13.142857142857142,0.07836917033858871
13.257142857142856,0.07604752565869374
13.371428571428572,0.0745603897301438
13.485714285714286,0.07469059476409451
13.6,0.07595567547449371
13.714285714285714,0.0770284190664815
13.828571428571427,0.07681761064352932
13.942857142857143,0.07513821370087834
14.057142857142857,0.07261301086166282
14.17142857142857,0.07025381259428738
14.285714285714285,0.06908115029633706
14.4,0.06970224588455276
14.514285714285714,0.07192080886116113
14.628571428571428,0.07480815641202185
14.742857142857142,0.07730254247633672
14.857142857142856,0.07871610152939723
14.971428571428572,0.07866342605399855
15.085714285714285,0.07677777251788269
15.2,0.07287219457011723
15.314285714285713,0.0674971610926204
15.428571428571429,0.06217267807879609
15.542857142857143,0.05882765957148096
15.657142857142857,0.05878079235458176
15.77142857142857,0.062044017231425205
15.885714285714284,0.06744672341249865
16.0,0.07336142491613264
16.114285714285714,0.078363772659271
16.228571428571428,0.08147216021432528
16.34285714285714,0.08222205472810273
16.457142857142856,0.0808452682676696
16.57142857142857,0.07831499587440603
16.685714285714287,0.07590842527474317
16.8,0.0744987284721202
16.914285714285715,0.07423056707409079
17.02857142857143,0.07488983310991076
17.142857142857142,0.07648731505027079
17.257142857142856,0.07927703389185158
17.37142857142857,0.08308589995996173
17.485714285714284,0.08677408163373923
17.599999999999998,0.08868559915999677
17.714285714285715,0.08786800502229988
17.82857142857143,0.08487994970441834
17.942857142857143,0.08136065996144473
18.057142857142857,0.07878108036481223
18.17142857142857,0.07749960906021837
18.285714285714285,0.0768115581768691
18.4,0.07580474763924926
18.514285714285712,0.07429974194995283
18.628571428571426,0.07312669644841972
18.742857142857144,0.0734612142755053
18.857142857142858,0.07576306540092395
18.97142857142857,0.07929214996466892
19.085714285714285,0.08260103608510275
19.2,0.08445690741946331
19.314285714285713,0.08442516870798092
19.428571428571427,0.08285895301193287
19.54285714285714,0.08050290049840064
19.657142857142855,0.07802574180616506
19.771428571428572,0.07572442147339284
19.885714285714286,0.07348251431036563
20.0,0.07091236568548026
20.114285714285714,0.06762097166520725
20.228571428571428,0.06358085570482927
20.34285714285714,0.05943915893455555
20.457142857142856,0.05645222087678883
20.57142857142857,0.05590935679037081
20.685714285714287,0.05832543102736502
20.8,0.06296274147147402
20.914285714285715,0.06809793600711615
21.02857142857143,0.07190823657712946
21.142857142857142,0.07335662426321751
21.257142857142856,0.07250565840921379
21.37142857142857,0.07020689361412838
21.485714285714284,0.06751017530408283
21.599999999999998,0.06512399826328054
21.714285714285715,0.06312349502154603
21.82857142857143,0.061047572439234726
21.942857142857143,0.05834709519263566
22.057142857142857,0.05485413715574323
22.17142857142857,0.0509436433148151
22.285714285714285,0.047376456580328775
22.4,0.04497782981195311
22.514285714285712,0.044240449241892604
22.628571428571426,0.04499853237519476
22.742857142857144,0.046425617274461844
22.857142857142858,0.047415500683216934
22.97142857142857,0.04710385174884756
23.085714285714285,0.04525969789729903
23.2,0.0423908094624227
23.314285714285713,0.039466901742312835
23.428571428571427,0.037344771387058995
23.54285714285714,0.03626811925798214
23.657142857142855,0.03581631966812532
23.771428571428572,0.035296449779339954
23.885714285714286,0.034227730260051464
24.0,0.032587013442822665
24.114285714285714,0.030742804551663047
24.228571428571428,0.02919725499539555
24.34285714285714,0.02829577362178232
24.457142857142856,0.028063943450687676
24.57142857142857,0.028284803202387798
24.685714285714283,0.028755389573127593
24.8,0.029499282443564194
24.914285714285715,0.03075858127175542
25.02857142857143,0.032766840191378314
25.142857142857142,0.03545259905252421
25.257142857142856,0.03831897252001846
25.37142857142857,0.040679943579695794
25.485714285714284,0.04208798341158658
25.599999999999998,0.042506272348985394
25.71428571428571,0.04205502004243884
25.82857142857143,0.04072059947998752
25.942857142857143,0.038462829774170475
26.057142857142857,0.035594641352155024
26.17142857142857,0.03290352854485394
26.285714285714285,0.03125557577445116
26.4,0.031012306496114354
26.514285714285712,0.031804030820135554
26.628571428571426,0.03284246109270599
26.742857142857144,0.033466091867182905
26.857142857142858,0.033490155852746756
26.97142857142857,0.033189876793364444
27.085714285714285,0.03303618484773951
27.2,0.03338473250360074
27.314285714285713,0.03425300922267133
27.428571428571427,0.035279643105661146
27.54285714285714,0.035927185446530556
27.657142857142855,0.0358254669022517
27.771428571428572,0.034981118134490896
27.885714285714286,0.03369069160218544
28.0,0.03229587034531329
28.114285714285714,0.03101817133099437
28.228571428571428,0.029951772387092575
28.34285714285714,0.02914780782809013
28.457142857142856,0.028696197376735757
28.57142857142857,0.028731650692277372
28.685714285714283,0.029353690031954385
28.8,0.03052878941094065
28.914285714285715,0.032037737210629635
29.02857142857143,0.03348010145477713
29.142857142857142,0.034367406200799436
29.257142857142856,0.0343441459115958
29.37142857142857,0.03343250956433881
29.485714285714284,0.032062563001560414
29.599999999999998,0.030786549436698018
29.71428571428571,0.02989264897673178
29.82857142857143,0.02926819775091032
29.942857142857143,0.028641254799999932
30.057142857142857,0.02795847146367025
30.17142857142857,0.027516334355896475
30.285714285714285,0.027720685313172386
30.4,0.02873540756803315
30.514285714285712,0.03036119108516658
30.628571428571426,0.032201879425386805
30.74285714285714,0.03389892543905113
30.857142857142858,0.03522100899991955
30.97142857142857,0.035990319777882585
31.085714285714285,0.03599831479227305
31.2,0.03508085188122913
31.314285714285713,0.03333333403570216
31.428571428571427,0.03122460216813002
31.54285714285714,0.029432012547668668
31.657142857142855,0.0285214682918147
31.77142857142857,0.028719628582674087
31.885714285714286,0.029864300581007582
32.0,0.03148562304619602
32.114285714285714,0.03298755082113066
32.22857142857143,0.03388629461542679
32.34285714285714,0.0339932101838754
32.457142857142856,0.03344792752200366
32.57142857142857,0.03259244897556679
32.68571428571428,0.03173084138541351
32.8,0.030893970007536894
32.91428571428571,0.02981527467071105
33.028571428571425,0.028211321481048254
33.14285714285714,0.026139658693924324
33.25714285714285,0.02406918050116453
33.371428571428574,0.022587212098526193
33.48571428571429,0.022034207099080556
33.6,0.02235254818779494
33.714285714285715,0.023166119113340166
33.82857142857143,0.023975617779614086
33.94285714285714,0.024396321839588692
34.05714285714286,0.02433686130508971
34.17142857142857,0.023966424832841757
34.285714285714285,0.023484004790280507
34.4,0.022950380101557137
34.51428571428571,0.022377707757796926
34.628571428571426,0.021924863686467382
34.74285714285714,0.021896402684394314
34.857142857142854,0.022493080870812508
34.97142857142857,0.023569169435767225
35.08571428571428,0.02465062375622511
35.199999999999996,0.025205308719190824
35.31428571428572,0.02493355815969635
35.42857142857143,0.023867493746416547
35.542857142857144,0.02227520576962232
35.65714285714286,0.020527437534030246
35.77142857142857,0.019036261374330874
35.885714285714286,0.018215292919692812
36.0,0.018372136401017872
36.114285714285714,0.01957098064960878
36.22857142857143,0.021594167094275526
36.34285714285714,0.024042937794398474
36.457142857142856,0.02647241610060719
36.57142857142857,0.02845921776730886
36.68571428571428,0.02964595553939972
36.8,0.029866189406853542
36.91428571428571,0.029295381033353808
37.028571428571425,0.028415711011366945
37.14285714285714,0.02771685969019086
37.25714285714285,0.027367120781362015
37.371428571428574,0.027163428412500388
37.48571428571429,0.026782675283580172
37.6,0.026058228100561256
37.714285714285715,0.02503525897812054
37.82857142857143,0.02383650718339747
37.94285714285714,0.022547549132651494
38.05714285714286,0.021234955367738687
38.17142857142857,0.02002072764679532
38.285714285714285,0.019088765927326567
38.4,0.018591702433591626
38.51428571428571,0.01853421734858769
38.628571428571426,0.01875898915025965
38.74285714285714,0.01908901818558982
38.857142857142854,0.019499787857823008
38.97142857142857,0.020120030681439468
39.08571428571428,0.021040529221128642
39.199999999999996,0.02214126849773812
39.31428571428571,0.023130867938265538
39.42857142857143,0.023762755159652302
39.542857142857144,0.024031432163799236
39.65714285714286,0.02419442756868436
39.77142857142857,0.024601762122036963
39.885714285714286,0.025426312323903702
40.0,0.02646850619762664
40.114285714285714,0.02722079871584883
40.22857142857143,0.027216245712439323
40.34285714285714,0.02640923426200841
40.457142857142856,0.025239686527729465
40.57142857142857,0.024293654925858794
40.68571428571428,0.02385676894078041
40.8,0.023755023511175633
40.91428571428571,0.023591778151997818
41.028571428571425,0.023124091598759867
41.14285714285714,0.022428111044965095
41.25714285714285,0.021737135792815557
41.371428571428574,0.02115021698069085
41.48571428571429,0.020521244934131537
41.6,0.019660154073439767
41.714285714285715,0.018655838528978983
41.82857142857143,0.017962563508521347
41.94285714285714,0.01809532057547676
42.05714285714286,0.019191040314173177
42.17142857142857,0.020856057295820452
42.285714285714285,0.022437419943992773
42.4,0.023449061980923884
42.51428571428571,0.023784197424302385
42.628571428571426,0.023610185661607948
42.74285714285714,0.023154204316850287
42.857142857142854,0.02261591279408434
42.97142857142857,0.022203908860525513
43.08571428571428,0.02212408712786334
43.199999999999996,0.022450045050340817
43.31428571428571,0.022993942682201802
43.42857142857143,0.02333068242225737
43.542857142857144,0.023014338874462276
43.65714285714286,0.021876478140453594
43.77142857142857,0.020194842005023358
43.885714285714286,0.018574886137370166
44.0,0.017614506886738386
44.114285714285714,0.01760508824734303
44.22857142857143,0.018449708867162906
44.34285714285714,0.019769120057852203
44.457142857142856,0.021081509549419116
44.57142857142857,0.02200390739237312
44.68571428571428,0.02243801652583798
44.8,0.022621672576922172
44.91428571428571,0.02294271080225982
45.028571428571425,0.023621088687327742
45.14285714285714,0.02453157092807083
45.25714285714285,0.025323258540408768
45.37142857142857,0.025724833562516047
45.48571428571429,0.025782617283949785
45.6,0.02582461201152514
45.714285714285715,0.026130400406396102
45.82857142857143,0.026570136709043013
45.94285714285714,0.026612055011962087
46.05714285714286,0.025792069419377305
46.17142857142857,0.024212531434061598
46.285714285714285,0.022538263947606295
46.4,0.02146968218763248
46.51428571428571,0.02119604830705598
46.628571428571426,0.021299053547478047
46.74285714285714,0.021130628193793185
46.857142857142854,0.020325307781597222
46.97142857142857,0.019066603238801542
47.08571428571428,0.01794155892864671
47.199999999999996,0.01751764593267588
47.31428571428571,0.017967697191639903
47.42857142857143,0.019016206976964278
47.542857142857144,0.02021901491092367
47.65714285714286,0.02131658587049461
47.77142857142857,0.02234511157499267
47.885714285714286,0.023420589206500173
48.0,0.02443517451812155
48.114285714285714,0.025001405201849847
48.22857142857143,0.024731544803574982
48.34285714285714,0.023591105592583077
48.457142857142856,0.021983143874533158
48.57142857142857,0.020493336751402445
48.68571428571428,0.019558905522651625
48.8,0.01936229365829506
48.91428571428571,0.019988574956737067
49.028571428571425,0.021670211405399667
49.14285714285714,0.025056907782133188
49.25714285714285,0.03170637308038274
49.37142857142857,0.04476399863722045
49.48571428571429,0.06877337813602538
49.6,0.10689214971305161
49.714285714285715,0.15570504413599975
49.82857142857143,0.20207721478848684
49.94285714285714,0.22771269343951833
50.05714285714286,0.22057767177317947
50.17142857142857,0.1837133835752312
50.285714285714285,0.13290308246621554
50.4,0.08569423904612888
50.51428571428571,0.05200370807892519
50.628571428571426,0.03261166302817223
50.74285714285714,0.023362529964058777
50.857142857142854,0.019697311159298056
50.97142857142857,0.018682696859337433
51.08571428571428,0.018897420636492416
51.199999999999996,0.019654212854833746
51.31428571428571,0.02055411099608684
51.42857142857142,0.021469935581449426
51.542857142857144,0.02253953968073396
51.65714285714286,0.023896766428393633
51.77142857142857,0.025337728347456897
51.885714285714286,0.02630566060395009
52.0,0.02626794101307573
52.114285714285714,0.025137938002080026
52.22857142857143,0.023353631507722853
52.34285714285714,0.021578182083968233
52.457142857142856,0.020310061106054968
52.57142857142857,0.019684286928916557
52.68571428571428,0.01952859885806387
52.8,0.019564705602936806
52.91428571428571,0.01960321480068497
53.028571428571425,0.019627310090182634
53.14285714285714,0.019754265528862877
53.25714285714285,0.020142873436943053
53.37142857142857,0.020897923932892568
53.48571428571429,0.021974087383366116
53.6,0.02313478536513451
53.714285714285715,0.024064169561320604
53.82857142857143,0.02457091547099617
53.94285714285714,0.024665356887483454
54.05714285714286,0.024454870390669594
54.17142857142857,0.024066344530527015
54.285714285714285,0.02371966921909357
54.4,0.02376858575814595
54.51428571428571,0.02451203710728864
54.628571428571426,0.025909984066251154
54.74285714285714,0.02753068863002835
54.857142857142854,0.028839027048025316
54.97142857142857,0.0295707406248919
55.08571428571428,0.02983090943700184
