Frequency,PSD
6.0,0.35484190610463895
6.08,0.3547510489180379
6.16,0.3545774066704287
6.24,0.3543370402726519
6.32,0.3540538061453723
6.4,0.3537590054251428
6.48,0.3534908174952771
6.5600000000000005,0.3532934628035451
6.640000000000001,0.35321605788024135
6.72,0.3533111568802702
6.8,0.35363301489369503
6.88,0.35423565252329847
6.96,0.35517084118905135
7.04,0.3564861563852064
7.12,0.3582232549270215
7.2,0.36041651789952195
7.28,0.36309216311042974
7.36,0.36626787321700793
7.44,0.36995291631129584
7.5200000000000005,0.37414866561367643
7.6000000000000005,0.37884936625814625
7.68,0.3840429611171623
7.76,0.3897117820489946
7.84,0.39583294059573754
7.92,0.402378309802921
8.0,0.40931406763222644
8.08,0.4165998594317676
8.16,0.4241877174266695
8.24,0.43202093559565585
8.32,0.4400331286935052
8.4,0.44814770015206973
8.48,0.4562779068581127
8.56,0.46432764652231784
8.64,0.4721930163286968
8.72,0.47976461180810237
8.8,0.48693046317974215
8.88,0.49357945036516243
8.96,0.49960500106251277
9.040000000000001,0.5049088584166651
9.120000000000001,0.5094047030341036
9.200000000000001,0.513021424514224
9.28,0.5157058571033256
9.36,0.5174248210110424
9.44,0.5181663456523232
9.52,0.5179399948881059
9.6,0.5167762681160472
9.68,0.5147251137446696
9.76,0.5118536590898103
9.84,0.5082433258055583
9.92,0.5039865531063497
10.0,0.4991833823960833
10.08,0.49393815865860363
10.16,0.48835657252282866
10.24,0.48254320451238697
10.32,0.4765996478989535
10.4,0.47062319203224484
10.48,0.4647059598992784
10.56,0.4589343274670096
10.64,0.4533884200920749
10.72,0.44814148896573697
10.8,0.4432590169223278
10.88,0.43879747952464637
10.96,0.43480278010212253
11.040000000000001,0.4313084694089281
11.120000000000001,0.4283339352079718
11.200000000000001,0.4258827913314764
11.28,0.42394170255559516
11.36,0.4224798510765335
11.44,0.4214491895297145
11.52,0.42078554662968004
11.6,0.4204105693947685
11.68,0.4202344145867811
11.76,0.4201590517231938
11.84,0.42008201522205646
11.92,0.4199004417326573
12.0,0.41951524256021966
12.08,0.41883527892517014
12.16,0.41778141798137985
12.24,0.4162903415886202
12.32,0.41431795524251436
12.4,0.4118422060577704
12.48,0.408865077894603
12.56,0.40541350483660377
12.64,0.40153894840982407
12.72,0.3973154328974777
12.8,0.39283593315231713
12.88,0.38820715661047495
12.96,0.38354294110653947
13.040000000000001,0.3789566786876835
13.120000000000001,0.37455334349644215
13.200000000000001,0.3704218190986431
13.280000000000001,0.366628262691429
13.36,0.36321119580868355
13.44,0.3601788721315807
13.52,0.3575092557568663
13.6,0.35515267342104834
13.68,0.3530369162665725
13.76,0.35107429884355135
13.84,0.34916997082225737
13.92,0.3472306480647267
14.0,0.34517289991316374
14.08,0.34293020028105403
14.16,0.34045810894567585
14.24,0.33773717244053436
14.32,0.33477338992742023
14.4,0.3315963449473126
14.48,0.32825532839980365
14.56,0.3248139479172023
14.64,0.32134382014133644
14.72,0.31791797198925553
14.8,0.31460454109295055
14.88,0.31146127768722226
14.96,0.30853122778411224
15.040000000000001,0.3058398387701105
15.120000000000001,0.30339358992544074
15.200000000000001,0.30118012443884407
15.280000000000001,0.29916975453229117
15.36,0.2973181313916813
15.44,0.2955698174168306
15.52,0.2938624682088144
15.6,0.29213132268389597
15.68,0.2903137080904592
15.76,0.288353288728504
15.84,0.28620381925475863
15.92,0.28383220249449703
16.0,0.28122069528092836
16.080000000000002,0.27836815250919
16.16,0.27529024875113045
16.240000000000002,0.27201866853592604
16.32,0.2685993109995293
16.4,0.26508961164342193
16.48,0.2615551415925125
16.56,0.2580656992244768
16.64,0.25469115463839986
16.72,0.2514973371703124
16.8,0.24854226315857664
16.88,0.24587298031315058
16.96,0.2435232547052145
17.04,0.24151224952983658
17.12,0.23984424921683867
17.2,0.2385093799839869
17.28,0.23748518248852152
17.36,0.23673881740729408
17.44,0.23622964113731137
17.52,0.23591188181829384
17.6,0.23573717476647746
17.68,0.23565677433117269
17.76,0.23562333463635277
17.84,0.23559223081952244
17.92,0.2355224618140571
18.0,0.23537722495916574
18.080000000000002,0.2351242759840972
18.16,0.23473618479044117
18.240000000000002,0.2341905724167172
18.32,0.2334703755174138
18.400000000000002,0.23256414098958533
18.48,0.23146631385627175
18.56,0.2301774528718859
18.64,0.22870429428889297
18.72,0.22705958554223438
18.8,0.22526162558414575
18.88,0.22333347410175336
18.96,0.22130182424227068
19.04,0.21919556929694714
19.12,0.21704413000608702
19.2,0.2148756429546171
19.28,0.21271513905995174
19.36,0.2105828611923238
19.44,0.2084928779933941
19.52,0.20645214362911052
19.6,0.20446012820310255
19.68,0.20250910054077612
19.76,0.20058508649095935
19.84,0.19866945730282612
19.92,0.19674103216495817
20.0,0.19477851624541603
20.080000000000002,0.19276304993504523
20.16,0.1906806238288129
20.240000000000002,0.188524121099919
20.32,0.18629478378790304
20.400000000000002,0.18400295731992122
20.48,0.18166804019601285
20.56,0.17931764338643466
20.64,0.17698603696512397
20.72,0.17471202199625668
20.8,0.17253640873427745
20.88,0.17049930600493315
20.96,0.16863743216223306
21.04,0.16698164800504106
21.12,0.16555488987030798
21.2,0.1643706498466404
21.28,0.16343211184044137
21.36,0.16273200835531637
21.44,0.16225321415881175
21.52,0.16197004063430925
21.6,0.16185014064504313
21.68,0.16185688163757064
21.76,0.16195199926445744
21.84,0.16209831056187698
21.92,0.16226225007615397
22.0,0.16241599845250962
22.080000000000002,0.16253900280240266
22.16,0.16261874067051682
22.240000000000002,0.16265065054942948
22.32,0.16263723479491274
22.400000000000002,0.16258642666051004
22.48,0.16250939231670591
22.56,0.16241800184876296
22.64,0.16232224261361214
22.72,0.16222785881852958
22.8,0.16213448083931842
22.88,0.1620344582354623
22.96,0.16191253668633523
23.04,0.16174642913549303
23.12,0.16150823532208466
23.2,0.1611665725409157
23.28,0.16068920442317963
23.36,0.16004590250900108
23.44,0.15921125317136495
23.52,0.15816713205359784
23.6,0.15690460754275323
23.68,0.15542509813227257
23.76,0.1537406872349369
23.84,0.15187358305827658
23.92,0.1498547906440214
24.0,0.14772212978949845
24.080000000000002,0.14551778067699883
24.16,0.1432855661786515
24.240000000000002,0.14106818655266476
24.32,0.13890461150383507
24.400000000000002,0.13682781052967194
24.48,0.13486296946890933
24.560000000000002,0.13302630284981465
24.64,0.13132453045118747
24.72,0.1297550437212659
24.8,0.12830674391052987
24.88,0.1269614894970158
24.96,0.1256960469187165
25.04,0.12448439811330761
25.12,0.12330022444635941
25.2,0.12211936366784282
25.28,0.12092202903891458
25.36,0.11969459129431988
25.44,0.11843075636905105
25.52,0.11713202393450488
25.6,0.11580737992452005
25.68,0.11447225376583095
25.76,0.1131468492350529
25.84,0.11185402702448591
25.92,0.11061696787957753
26.0,0.10945687007457755
26.080000000000002,0.10839092963437234
26.16,0.10743081570407817
26.240000000000002,0.10658179075191906
26.32,0.10584254378958881
26.400000000000002,0.1052057154208181
26.48,0.10465900864267845
26.560000000000002,0.1041867108637466
26.64,0.10377141019266059
26.72,0.10339567840832725
26.8,0.1030435149715738
26.88,0.1027013967193862
26.96,0.10235884784394383
27.04,0.10200852280653157
27.12,0.10164586841102025
27.2,0.10126848896715611
27.28,0.10087537197453296
27.36,0.10046613708898366
27.44,0.10004044919531208
27.52,0.09959769258266757
27.6,0.09913694619433226
27.68,0.09865724002524896
27.76,0.09815802006050009
27.84,0.09763971186673827
27.92,0.09710425612916367
28.0,0.09655549446018319
28.080000000000002,0.09599930854206191
28.16,0.09544345512269155
28.240000000000002,0.09489708683184218
28.32,0.0943699969590049
28.400000000000002,0.09387166853404726
28.48,0.09341023897378743
28.560000000000002,0.09299150776492045
28.64,0.0926181147105822
28.72,0.09228900060881817
28.8,0.09199923287922054
28.88,0.09174023888524818
28.96,0.09150044371752937
29.04,0.09126626183124854
29.12,0.09102334829455752
29.2,0.09075798055791709
29.28,0.09045842011037683
29.36,0.090116098574358
29.44,0.08972648647462014
29.52,0.0892895347297757
29.6,0.08880962608347238
29.68,0.08829503111385231
29.76,0.08775692417127437
29.84,0.08720807062868792
29.92,0.08666134035015435
30.0,0.08612822681716473
30.080000000000002,0.0856175528941423
30.16,0.08513452198611139
30.240000000000002,0.08468023004077588
30.32,0.08425169531175149
30.400000000000002,0.083842397128695
30.48,0.08344325120437263
30.560000000000002,0.08304389589771072
30.64,0.08263412821948105
30.72,0.0822053143157154
30.8,0.0817516075329665
30.88,0.08127083561412313
30.96,0.08076496215913903
31.04,0.08024007965301248
31.12,0.07970594505761965
31.2,0.07917511770031539
31.28,0.07866179788609985
31.36,0.07818049010264158
31.44,0.07774462564498702
31.52,0.07736527648323459
31.6,0.07705007708966266
31.68,0.07680244642689721
31.76,0.07662117145272691
31.84,0.0765003794365112
31.92,0.0764298920515511
32.0,0.07639592227327868
32.08,0.07638204790578215
32.160000000000004,0.07637037501662343
32.24,0.07634279213315368
32.32,0.0762822125800667
32.4,0.0761737079122751
32.480000000000004,0.0760054492878105
32.56,0.07576939428451934
32.64,0.07546168185678048
32.72,0.0750827251755716
32.8,0.07463701819660187
32.88,0.07413269437880515
32.96,0.07358089297745134
33.04,0.0729949984516382
33.12,0.07238982128471269
33.2,0.07178078427343326
33.28,0.07118316817069212
33.36,0.0706114560912042
33.44,0.07007879928775188
33.52,0.06959660990535284
33.6,0.06917427119739838
33.68,0.06881894426443788
33.76,0.0685354440289251
33.84,0.06832615663753464
33.92,0.06819097576811024
34.0,0.06812724555317201
34.08,0.06812971135306926
34.160000000000004,0.06819049411334778
34.24,0.06829911686658356
34.32,0.06844262047661454
34.4,0.06860580784267817
34.480000000000004,0.0687716502389528
34.56,0.06892187619380126
34.64,0.06903774352827949
34.72,0.06910097126424726
34.800000000000004,0.06909478332062664
34.88,0.06900499385455905
34.96,0.06882104819383951
35.04,0.06853692623586186
35.12,0.06815181848247903
35.2,0.06767049866294164
35.28,0.06710333987113064
35.36,0.06646595079178885
35.44,0.06577844155451851
35.52,0.065064361317761
35.6,0.06434937828490501
35.68,0.0636597945391228
35.76,0.0630210008533155
35.84,0.06245597962631543
35.92,0.06198395761237849
36.0,0.0616192954617387
36.08,0.06137068034494743
36.160000000000004,0.06124066358033684
36.24,0.06122555976948426
36.32,0.0613156997526083
36.4,0.06149600849787608
36.480000000000004,0.06174686196681864
36.56,0.06204516453075581
36.64,0.06236558057593663
36.72,0.06268185008029432
36.800000000000004,0.0629681175626375
36.88,0.06320020631723318
36.96,0.06335677483606834
37.04,0.06342029957391362
37.12,0.06337783766776571
37.2,0.06322153485710805
37.28,0.06294885752481671
37.36,0.06256254310254716
37.44,0.06207027934693941
37.52,0.06148413916301065
37.6,0.060819812469130194
37.68,0.060095688733036376
37.76,0.05933185204929767
37.84,0.058549054071532596
37.92,0.05776772831060262
38.0,0.05700710236179275
38.08,0.05628445319241289
38.160000000000004,0.0556145358807312
38.24,0.055009199719434944
38.32,0.054477189185007116
38.4,0.05402411275784634
38.480000000000004,0.05365255158302291
38.56,0.05336227367977718
38.64,0.0531505183914726
38.72,0.05301231979091452
38.800000000000004,0.052940845782005835
38.88,0.05292773992472303
38.96,0.05296346335957622
39.04,0.05303764234722946
39.12,0.053139430965431694
39.2,0.053257897310736754
39.28,0.053382435131058587
39.36,0.05350319236472807
39.44,0.05361149582854805
39.52,0.05370024017039895
39.6,0.053764202124675656
39.68,0.05380024042672616
39.76,0.0538073486320627
39.84,0.05378654220302198
39.92,0.053740580666986754
40.0,0.0536735472589732
40.08,0.053590328419672276
40.160000000000004,0.053496050113110157
40.24,0.05339553431286291
40.32,0.05329283581551203
40.4,0.0531909071895274
40.480000000000004,0.053091420288410074
40.56,0.052994749774134
40.64,0.052900101541017513
40.72,0.05280575063089413
40.800000000000004,0.05270934206915637
40.88,0.052608205429265816
40.96,0.05249963956496183
41.04,0.05238113601277114
41.12,0.052250525167388595
41.2,0.052106045161761316
41.28,0.0519463464290259
41.36,0.05177045306038136
41.44,0.0515777044256445
41.52,0.051367697525098135
41.6,0.05114024370521662
41.68,0.050895344842967816
41.76,0.05063318611891653
41.84,0.050354136874382886
41.92,0.05005874881929432
42.0,0.04974774213981092
42.08,0.04942197412477151
42.160000000000004,0.04908239049170816
42.24,0.04872996514236372
42.32,0.04836563826606141
42.4,0.04799026462419264
42.480000000000004,0.04760458315576418
42.56,0.04720921597957617
42.64,0.04680470011510448
42.72,0.04639154973195009
42.800000000000004,0.04597034143906749
42.88,0.04554181088527719
42.96,0.04510694637526695
43.04,0.04466706465238189
43.12,0.04422385553978156
43.2,0.04377938561139927
43.28,0.04333605612919668
43.36,0.042896516601292095
43.44,0.04246354179638313
43.52,0.042039886076967736
43.6,0.04162813360677774
43.68,0.04123056550454393
43.76,0.040849064691055564
43.84,0.04048507567110712
43.92,0.040139629924469025
44.0,0.03981343859261631
44.08,0.0395070438811205
44.160000000000004,0.039221010557601965
44.24,0.03895613075553805
44.32,0.038713610488364275
44.4,0.038495205888057084
44.480000000000004,0.0383032815857328
44.56,0.03814077243491848
44.64,0.038011041765426204
44.72,0.037917642791400856
44.800000000000004,0.03786400264752091
44.88,0.037853058846018035
44.96,0.037886884227357955
45.04,0.03796633791895835
45.12,0.03809077645088996
45.2,0.03825785182775655
45.28,0.03846341344010313
45.36,0.0387015199274068
45.44,0.03896455713765786
45.52,0.039243450465877676
45.6,0.03952795482480115
45.68,0.03980700338693009
45.76,0.04006909653577432
45.84,0.04030271426744863
45.92,0.04049673752489298
46.0,0.04064086565762752
46.08,0.040726017727566316
46.160000000000004,0.040744704526439954
46.24,0.04069135622462594
46.32,0.040562588256503634
46.4,0.040357386369770064
46.480000000000004,0.04007719181051191
46.56,0.03972587031452887
46.64,0.03930955448504367
46.72,0.03883635826051436
46.800000000000004,0.03831597386540371
46.88,0.037759174601437684
46.96,0.037177259278134964
47.04,0.03658148394182824
47.12,0.03598253186598442
47.2,0.03539007199387499
47.28,0.034812448459743794
47.36,0.034256529775902614
47.44,0.03372772718631212
47.52,0.03323016995350835
47.6,0.03276700401906293
47.68,0.032340762796273695
47.76,0.031953747707364574
47.84,0.03160835350766371
47.92,0.03130728026411349
48.0,0.03105358948911581
48.08,0.03085058442966869
48.160000000000004,0.030701520839475055
48.24,0.0306091810252557
48.32,0.030575366745225097
48.4,0.030600382268756485
48.480000000000004,0.0306825851266464
48.56,0.030818077619921877
48.64,0.031000597308775545
48.72,0.031221641223500927
48.800000000000004,0.03147082942212037
48.88,0.03173648262193972
48.96,0.03200636016129703
49.04,0.032268482481261476
49.120000000000005,0.03251194983418622
49.2,0.03272766792650478
49.28,0.032908901991579344
49.36,0.03305160198215248
49.44,0.03315447026152833
49.52,0.03321877532385355
49.6,0.033247946120511525
49.68,0.03324700710781447
49.76,0.03322193060418041
49.84,0.03317898830294269
49.92,0.033124177422482824
50.0,0.03306278037408925
50.08,0.032999092920802935
50.160000000000004,0.03293632855993441
50.24,0.032876680628749516
50.32,0.03282150239327261
50.4,0.03277155212058587
50.480000000000004,0.032727246387171005
50.56,0.03268887052958962
50.64,0.032656708553295694
50.72,0.03263107316996096
50.800000000000004,0.03261223651555256
50.88,0.032600280119082906
50.96,0.03259489606839369
51.04,0.03259517832634184
51.120000000000005,0.03259944331717415
51.2,0.03260511297181638
51.28,0.03260868308272265
51.36,0.03260578729122398
51.44,0.032591354579919775
51.52,0.03255984765354708
51.6,0.03250556226123884
51.68,0.03242296372721994
51.76,0.032307036352947245
51.84,0.03215362303599746
51.92,0.03195973529832484
52.0,0.03172381690133495
52.08,0.03144594667254556
52.160000000000004,0.031127967898626572
52.24,0.030773532969807556
52.32,0.030388053574248973
52.4,0.029978549459028885
52.480000000000004,0.02955339328720536
52.56,0.02912195574247505
52.64,0.028694163538449155
52.72,0.028279992568935
52.800000000000004,0.027888927787403046
52.88,0.027529428948705796
52.96,0.027208445523067303
53.04,0.026931023679220477
53.120000000000005,0.026700042626245504
53.2,0.026516106994527795
53.28,0.02637760735001267
53.36,0.026280944109165247
53.44,0.026220893243781962
53.52,0.02619107752443002
53.6,0.02618449665963929
53.68,0.026194064943558207
53.76,0.026213106488181016
53.84,0.026235765432965595
53.92,0.026257300506614335
54.0,0.026274248159960722
54.08,0.026284454086155495
54.160000000000004,0.026286987217585215
54.24,0.026281961499627655
54.32,0.02627029771518843
54.4,0.026253459878028858
54.480000000000004,0.026233198418388927
54.56,0.026211326330736882
54.64,0.02618954584203117
54.72,0.026169333410793624
54.800000000000004,0.026151881417508918
54.88,0.026138087020562306
54.96,0.026128573280955233
55.04,0.02612372534832201
