Frequency,PSD
6.0,0.2656277346998198
6.08,0.2701677586344606
6.16,0.27989885042590806
6.24,0.29565255050075645
6.32,0.31778085098270764
6.4,0.34567998063455807
6.48,0.3777368624165448
6.5600000000000005,0.41171145717362534
6.640000000000001,0.44540368589847956
6.72,0.4773531579019039
6.8,0.5072139917719235
6.88,0.5354288489523766
6.96,0.5621374903487165
7.04,0.5859017524595731
7.12,0.603309458585435
7.2,0.6101818732981842
7.28,0.6039277307668433
7.36,0.5854842184440081
7.44,0.5593865079193584
7.5200000000000005,0.5319086682788213
7.6000000000000005,0.5086804344659799
7.68,0.49333374043721445
7.76,0.4875398722179235
7.84,0.4915845435645204
7.92,0.5045741761553756
8.0,0.5242720778789566
8.08,0.5472402058631654
8.16,0.5696626079957974
8.24,0.5884164266372637
8.32,0.6016535740813226
8.4,0.6087085180339823
8.48,0.6098682002886806
8.56,0.6065563049942616
8.64,0.6017592813232898
8.72,0.5998828473373062
8.8,0.6054414412461172
8.88,0.6209527011118348
8.96,0.6452897851413519
9.040000000000001,0.6737363518068431
9.120000000000001,0.7000155373641171
9.200000000000001,0.7193021501085746
9.28,0.7305508094754563
9.36,0.736814106237017
9.44,0.7433513580120319
9.52,0.7545840830987562
9.6,0.7716406526441246
9.68,0.79192776320659
9.76,0.8109742849370954
9.84,0.8253820311407645
9.92,0.8349778722190033
10.0,0.8427457879629253
10.08,0.8526210522632671
10.16,0.866756539491581
10.24,0.8842122288104014
10.32,0.9018034199573717
10.4,0.9161164636691838
10.48,0.9250522853208498
10.56,0.9281633566799377
10.64,0.9263513257310161
10.72,0.9217432142389338
10.8,0.9176681472587105
10.88,0.9178923378738728
10.96,0.9247520009251408
11.040000000000001,0.9371946744560136
11.120000000000001,0.9504850337099966
11.200000000000001,0.958361367914252
11.28,0.9563563739496319
11.36,0.9437803002453288
11.44,0.9229093521431814
11.52,0.896409900269219
11.6,0.8655105423567954
11.68,0.8304151598561799
11.76,0.7920929207762256
11.84,0.7533768755774793
11.92,0.718274420726387
12.0,0.6901974827485298
12.08,0.6705701429509197
12.16,0.6585802388258931
12.24,0.6518014897826131
12.32,0.6470586097417402
12.4,0.6412303398114616
12.48,0.6320298310949002
12.56,0.6187605197057107
12.64,0.6027861557257269
12.72,0.587368889071918
12.8,0.5767552313964457
12.88,0.574711871612031
12.96,0.5829132402467438
13.040000000000001,0.5997161202868784
13.120000000000001,0.6200015068564945
13.200000000000001,0.636631407808494
13.280000000000001,0.6432887454629228
13.36,0.6373618901045857
13.44,0.6211352020125152
13.52,0.6004854801909624
13.6,0.5818950985326162
13.68,0.5695308567607675
13.76,0.5638013780201077
13.84,0.5617744263356113
13.92,0.5589616911170612
14.0,0.5515406981957462
14.08,0.5379844440004921
14.16,0.5193648591314062
14.24,0.4983433998237219
14.32,0.4776520133490511
14.4,0.4590418163900503
14.48,0.4430996215795545
14.56,0.42961470282113445
14.64,0.4179817965397703
14.72,0.40744738382205403
14.8,0.39730692982468346
14.88,0.38709937527017557
14.96,0.3766559772967243
15.040000000000001,0.3659368662815909
15.120000000000001,0.3548710515217152
15.200000000000001,0.3434580705286643
15.280000000000001,0.33203536607241446
15.36,0.3213028273263818
15.44,0.311894771140401
15.52,0.30383027671786045
15.6,0.29641542512451224
15.68,0.28879848768505917
15.76,0.28076348419515473
15.84,0.2730838511230492
15.92,0.2670512626956611
16.0,0.2633946558750123
16.080000000000002,0.26131810426222496
16.16,0.2584730672959963
16.240000000000002,0.25215430494526025
16.32,0.2410827810357321
16.4,0.22651881415630382
16.48,0.2117984486036753
16.56,0.2005462744109604
16.64,0.19479673193866687
16.72,0.19420009397887644
16.8,0.1965552432198829
16.88,0.19902342062760225
16.96,0.19922181388287008
17.04,0.1958321702884998
17.12,0.18878335592674977
17.2,0.1791372778166669
17.28,0.16869260900051555
17.36,0.15933273713316032
17.44,0.15232564736251977
17.52,0.14790658038396418
17.6,0.14535212114492946
17.68,0.1434564898669376
17.76,0.14109351335834336
17.84,0.13756739807377408
17.92,0.1326710233948798
18.0,0.12657409414039872
18.080000000000002,0.1196997710108917
18.16,0.11264436168503514
18.240000000000002,0.10609528060382005
18.32,0.10070839914345216
18.400000000000002,0.09698317075240745
18.48,0.09520732722761108
18.56,0.09547252805664631
18.64,0.09766651742224887
18.72,0.1013659035057405
18.8,0.10570889490927944
18.88,0.10945569385282364
18.96,0.11136064303814436
19.04,0.11071069213370435
19.12,0.10768136644410488
19.2,0.10324695162492803
19.28,0.09869963023389539
19.36,0.0950945750225022
19.44,0.09292475038619297
19.52,0.09210379908551378
19.6,0.09214031484410141
19.68,0.09236545362770152
19.76,0.09215427150203381
19.84,0.09111810355956931
19.92,0.08922059934823162
20.0,0.08676900818158571
20.080000000000002,0.08429066203943852
20.16,0.08235863658878823
20.240000000000002,0.0814257961469664
20.32,0.08169567882499797
20.400000000000002,0.0830549972655042
20.48,0.0851007376118102
20.56,0.08726460211329225
20.64,0.088977030929819
20.72,0.08979022074962296
20.8,0.08942734221485367
20.88,0.0877921176630811
20.96,0.0849871613079658
21.04,0.08134192991335684
21.12,0.07739702644795768
21.2,0.0737897333627601
21.28,0.07104849006816133
21.36,0.06938779653487231
21.44,0.06862754249758049
21.52,0.06829947649503301
21.6,0.06788353831800992
21.68,0.06703165691762304
21.76,0.06565636108267037
21.84,0.06386761056458008
21.92,0.06184464684904786
22.0,0.059751340007932696
22.080000000000002,0.05773868638912319
22.16,0.05599059361804479
22.240000000000002,0.05473122226139985
22.32,0.05414918760568704
22.400000000000002,0.054272860800591856
22.48,0.05488881773584669
22.56,0.05558276878613856
22.64,0.05590145154848014
22.72,0.05554540479602083
22.8,0.054479459116615656
22.88,0.05290888519524113
22.96,0.051159346326168864
23.04,0.049544642922246515
23.12,0.048284820389258284
23.2,0.04748412256151094
23.28,0.04714009543259987
23.36,0.047151266759587765
23.44,0.047314605080844646
23.52,0.047335805252965726
23.6,0.046887499813947575
23.68,0.04572164658702294
23.76,0.04378786766523469
23.84,0.04128161378468682
23.92,0.03858129098058935
24.0,0.03610554557065084
24.080000000000002,0.03416775786044071
24.16,0.03289394537809879
24.240000000000002,0.03222617964741221
24.32,0.03199228748780409
24.400000000000002,0.031998951229976286
24.48,0.032102451163212004
24.560000000000002,0.03223159201788665
24.64,0.03237016689161792
24.72,0.032526557225113675
24.8,0.03271287359482132
24.88,0.03293907055509145
24.96,0.03321656117562402
25.04,0.03356142903579972
25.12,0.03398437536395578
25.2,0.034460709343642065
25.28,0.03489675414164077
25.36,0.035132051694360386
25.44,0.03500635940976307
25.52,0.03446874051882668
25.6,0.03365367287775235
25.68,0.032851532326487985
25.76,0.032368849804780206
25.84,0.03235606190087319
25.92,0.03271045728411079
26.0,0.03311750921929675
26.080000000000002,0.03320945238738475
26.16,0.03275160320279383
26.240000000000002,0.031752294414237665
26.32,0.030437045248253792
26.400000000000002,0.029107891537941372
26.48,0.027978722552615985
26.560000000000002,0.027089272659164654
26.64,0.026341090336829517
26.72,0.025611615489466902
26.8,0.024856774234423763
26.88,0.024139799309517946
26.96,0.023588846164567155
27.04,0.023327226910423035
27.12,0.02341485399485255
27.2,0.02381567610407483
27.28,0.0243958382274131
27.36,0.024958015255288728
27.44,0.02530658043345884
27.52,0.025315839960329496
27.6,0.024965550386585475
27.68,0.02432874709870202
27.76,0.023527108193473707
27.84,0.022681071177885866
27.92,0.021873838406131996
28.0,0.021137985098902412
28.080000000000002,0.020467862023312196
28.16,0.019851927965992652
28.240000000000002,0.0193052169025209
28.32,0.018878006135509523
28.400000000000002,0.018632416851794734
28.48,0.018602163770795634
28.560000000000002,0.018760811338800473
28.64,0.019014875215985626
28.72,0.01922282379810291
28.8,0.019232336141604918
28.88,0.018925492175494593
28.96,0.018258483988779318
29.04,0.017280118657223547
29.12,0.016119131925388375
29.2,0.01494458984316861
29.28,0.013916117977104053
29.36,0.0131419461098668
29.44,0.012655122877782865
29.52,0.012411375517178793
29.6,0.012309990425046668
29.68,0.01223604175484852
29.76,0.012112316179483034
29.84,0.011937035743804988
29.92,0.011782639272603708
30.0,0.01174996250497917
30.080000000000002,0.011901997931647854
30.16,0.012218908925297735
30.240000000000002,0.012603902232022103
30.32,0.012934745394038938
30.400000000000002,0.013125525738460604
30.48,0.013161077547369825
30.560000000000002,0.01309053860565069
30.64,0.012993871429867434
30.72,0.012945274373925422
30.8,0.012988670031161727
30.88,0.01312675040447003
30.96,0.01331979349895257
31.04,0.013494484971358805
31.12,0.013565865653538494
31.2,0.013469000095697979
31.28,0.013186165499490674
31.36,0.012753416141962765
31.44,0.012242124627927505
31.52,0.011727170383016669
31.6,0.011260893320638982
31.68,0.010866069747447324
31.76,0.0105470500509309
31.84,0.010305829740880833
31.92,0.010148403408164555
32.0,0.010077785033907969
32.08,0.01008368887086782
32.160000000000004,0.0101412923558478
32.24,0.010220091572239931
32.32,0.010291924403673621
32.4,0.010329429434991946
32.480000000000004,0.010300171697243336
32.56,0.010169848765223583
32.64,0.009919171731045935
32.72,0.009562588452468075
32.8,0.009151631097548782
32.88,0.008757153727308809
32.96,0.008440927519862581
33.04,0.008233369653765853
33.12,0.008128051081916485
33.2,0.00809275705826804
33.28,0.008088932059904371
33.36,0.008089135056497079
33.44,0.008085155006834056
33.52,0.008085351954352797
33.6,0.00810494909411689
33.68,0.00815472203341363
33.76,0.008232418158106897
33.84,0.008319842211685356
33.92,0.008387747049581036
34.0,0.008408768527980805
34.08,0.008374299808832718
34.160000000000004,0.008306293255999884
34.24,0.008253913786938245
34.32,0.008271069644753066
34.4,0.00838274061070197
34.480000000000004,0.00855871667710959
34.56,0.00871384361873369
34.64,0.00874044512849615
34.72,0.008558339480499094
34.800000000000004,0.008155333004194885
34.88,0.007596374239449755
34.96,0.0069986428363121855
35.04,0.006487911115845052
35.12,0.006156953577052429
35.2,0.006040564838136069
35.28,0.006112512499983172
35.36,0.006302735535843005
35.44,0.0065273273301357316
35.52,0.006718711413147605
35.6,0.006842816852406458
35.68,0.006897362595321336
35.76,0.006896888117510129
35.84,0.006857132302067295
35.92,0.006788486830442317
36.0,0.006698861652191485
36.08,0.006598829978986218
36.160000000000004,0.006502194321565224
36.24,0.006421525041294786
36.32,0.0063636265724379805
36.4,0.006328845079250222
36.480000000000004,0.006312720335294396
36.56,0.006305865385925714
36.64,0.006291741384046855
36.72,0.00624764157676877
36.800000000000004,0.006154194314289128
36.88,0.006011264945846329
36.96,0.005849638710616953
37.04,0.005726885291053026
37.12,0.00570501690780597
37.2,0.005820529699722903
37.28,0.006063588927064258
37.36,0.006377379056679002
37.44,0.006676367499592407
37.52,0.006873586795321335
37.6,0.006906569504448496
37.68,0.0067552542210009975
37.76,0.006447588090052367
37.84,0.006049936638488107
37.92,0.005643780645761266
38.0,0.00529778362476735
38.08,0.005048950997161157
38.160000000000004,0.004901847769760643
38.24,0.004842428968141351
38.32,0.004853257423823762
38.4,0.004918893967338583
38.480000000000004,0.005021947524359069
38.56,0.005139613656942126
38.64,0.005248076765174054
38.72,0.005331347039681778
38.800000000000004,0.005384432695310789
38.88,0.005405939083307433
38.96,0.005386820246256244
39.04,0.0053075414525925214
39.12,0.0051491126833452805
39.2,0.004910719181031883
39.28,0.00462007833842464
39.36,0.004327843555564617
39.44,0.004088992669705484
39.52,0.003942221987835279
39.6,0.003897749596372224
39.68,0.003937274812089897
39.76,0.004023316202648049
39.84,0.004112645372033919
39.92,0.004169481646400431
40.0,0.004175571833953365
40.08,0.004134628477564877
40.160000000000004,0.004069125579063263
40.24,0.004010029426736845
40.32,0.003983838658808687
40.4,0.00400309395358399
40.480000000000004,0.004064347007664737
40.56,0.004152955399870941
40.64,0.00425033321032417
40.72,0.004338845109627162
40.800000000000004,0.0044025032264207896
40.88,0.004425762552069186
40.96,0.004394510918934642
41.04,0.00430085744542254
41.12,0.004148630029888844
41.2,0.003954375647058678
41.28,0.0037416948312941423
41.36,0.003532251383294451
41.44,0.003339479792792751
41.52,0.0031684643500943035
41.6,0.0030204048843766656
41.68,0.0028971606909182187
41.76,0.002802512031254865
41.84,0.002740076878397198
41.92,0.002710212611840828
42.0,0.0027084087229459555
42.08,0.0027263241927665254
42.160000000000004,0.002754945400533929
42.24,0.0027881400933004548
42.32,0.0028246348667783925
42.4,0.0028672985527841612
42.480000000000004,0.002920126811790458
42.56,0.0029846056852193565
42.64,0.003057426181068074
42.72,0.003130613252070912
42.800000000000004,0.0031935623792181487
42.88,0.0032354956517037297
42.96,0.0032474365624136437
43.04,0.00322422366259934
43.12,0.0031672202805086303
43.2,0.003086445650548539
43.28,0.0029991638265110428
43.36,0.002923558358386047
43.44,0.002870529077954767
43.52,0.0028394725268734685
43.6,0.002821545268422445
43.68,0.0028080021004540804
43.76,0.002797230904801099
43.84,0.00279561003151501
43.92,0.0028124088366709293
44.0,0.0028528252766354782
44.08,0.0029132811580822975
44.160000000000004,0.0029807383870591835
44.24,0.0030358503049810782
44.32,0.0030589970220575805
44.4,0.0030375515129615113
44.480000000000004,0.0029716375569516056
44.56,0.002875399220733533
44.64,0.00277255144289449
44.72,0.0026879990569994225
44.800000000000004,0.002639456208576446
44.88,0.0026326650800877205
44.96,0.002661374908397912
45.04,0.0027107433848354723
45.12,0.0027620731560260015
45.2,0.002797616698064255
45.28,0.002804898720029066
45.36,0.0027797616653735518
45.44,0.002727099544275382
45.52,0.0026590178157030915
45.6,0.002591268481023472
45.68,0.002539027023490577
45.76,0.0025126753515965303
45.84,0.0025144508017605535
45.92,0.0025374996622100528
46.0,0.0025685251325470275
46.08,0.002593314465234725
46.160000000000004,0.0026024444810912595
46.24,0.002594167030079888
46.32,0.0025731788765263365
46.4,0.002546588688489698
46.480000000000004,0.0025201704776219025
46.56,0.0024973740027822884
46.64,0.0024806134186906685
46.72,0.0024717167736152887
46.800000000000004,0.002469319566458135
46.88,0.0024652883088060844
46.96,0.0024454234445776997
47.04,0.0023972173715400974
47.12,0.002320520995876818
47.2,0.002232363525352544
47.28,0.00216036871258039
47.36,0.0021281294708535084
47.44,0.002142528247409091
47.52,0.0021914313625725178
47.6,0.002252217678321098
47.68,0.00230422965311566
47.76,0.0023369238882418354
47.84,0.0023501251306125986
47.92,0.002348863070876575
48.0,0.002338051816925101
48.08,0.0023203963809252832
48.160000000000004,0.002297129795483261
48.24,0.0022694058954830613
48.32,0.002239346187730539
48.4,0.0022112001046173564
48.480000000000004,0.002192392597590888
48.56,0.002192598608971412
48.64,0.0022194966903927617
48.72,0.0022729915886376094
48.800000000000004,0.0023422500679355814
48.88,0.0024087492327479025
48.96,0.002454297284559207
49.04,0.0024692410668292718
49.120000000000005,0.0024558021386951977
49.2,0.002424717238833033
49.28,0.0023876781590286868
49.36,0.002350567906152703
49.44,0.0023116439998275944
49.52,0.002265351956484158
49.6,0.0022087638229411656
49.68,0.0021460681159699534
49.76,0.002087892938624006
49.84,0.0020456118572383802
49.92,0.0020242105348881705
50.0,0.0020186349224976703
50.08,0.002016578648522012
50.160000000000004,0.002006286923673488
50.24,0.0019841410719135394
50.32,0.0019566391173341663
50.4,0.0019354263146072193
50.480000000000004,0.001929289937120937
50.56,0.0019392129527055074
50.64,0.0019597616379638666
50.72,0.001984678784084041
50.800000000000004,0.002011355084725521
50.88,0.002040588320751137
50.96,0.0020727371250601687
51.04,0.0021044148235652843
51.120000000000005,0.0021287419490861187
51.2,0.0021386699946258046
51.28,0.002130522930562321
51.36,0.0021052303617531166
51.44,0.0020667183116305186
51.52,0.0020188920343725686
51.6,0.0019635426631540304
51.68,0.0019008774520384505
51.76,0.0018324258577013045
51.84,0.0017640722705481848
51.92,0.0017065688033981053
52.0,0.001672542729901482
52.08,0.001671369480512764
52.160000000000004,0.0017045174637158114
52.24,0.0017635524639560488
52.32,0.0018316918369669973
52.4,0.0018884150609636916
52.480000000000004,0.0019154586898172295
52.56,0.0019019440220031762
52.64,0.0018469375597150207
52.72,0.0017591677657052655
52.800000000000004,0.0016547222293835685
52.88,0.0015535241667528725
52.96,0.0014748166349635907
53.04,0.0014319711284890933
53.120000000000005,0.0014280098866426179
53.2,0.0014542211005780757
53.28,0.001493608738670528
53.36,0.0015282520927969653
53.44,0.001546700887703179
53.52,0.001547133159743191
53.6,0.0015351381888578219
53.68,0.0015190355928177291
53.76,0.0015066856021765575
53.84,0.0015049691098725868
53.92,0.0015198759327195773
54.0,0.0015550055912864989
54.08,0.0016089453831628605
54.160000000000004,0.0016740562661319734
54.24,0.0017384089544383407
54.32,0.0017900432081834517
54.4,0.0018209883714565781
54.480000000000004,0.0018289186894181794
54.56,0.0018161833150600432
54.64,0.0017876023477434615
54.72,0.0017487411028672094
54.800000000000004,0.0017054226683967631
54.88,0.0016639696658936327
54.96,0.0016310972786928728
55.04,0.0016128348920923553
