Frequency,PSD
6.057142857142857,0.24365238249987897
6.171428571428571,0.24778694448492639
6.285714285714286,0.2548500230381128
6.3999999999999995,0.263481323243763
6.514285714285714,0.27305426577426517
6.628571428571428,0.2833953363976268
6.742857142857143,0.2937362349633543
6.857142857142857,0.3022268051379995
6.9714285714285715,0.30669508040552546
7.085714285714285,0.30600495716138554
7.2,0.30092484925730056
7.314285714285714,0.2940746544038383
7.428571428571428,0.28916871902729296
7.542857142857143,0.28987227447664776
7.657142857142857,0.2986028218238629
7.771428571428571,0.31577416118632207
7.885714285714285,0.3398527090104173
8.0,0.36799756915035897
8.114285714285714,0.3966011090940272
8.228571428571428,0.42137635999706224
8.342857142857143,0.43751238972629436
8.457142857142857,0.44081493362864604
8.571428571428571,0.42992733741378986
8.685714285714285,0.4082509817774427
8.799999999999999,0.38366330651787073
8.914285714285715,0.3655588077229426
9.028571428571428,0.36106916491945407
9.142857142857142,0.37320186137410716
9.257142857142856,0.4019718008170796
9.371428571428572,0.4469943769739848
9.485714285714286,0.5090397809670306
9.6,0.5893389697573375
9.714285714285714,0.6873071964951738
9.828571428571427,0.7982291396136507
9.942857142857143,0.9123391066186121
10.057142857142857,1.0161837639543012
10.17142857142857,1.0961617843997926
10.285714285714285,1.1428119444194735
10.4,1.153713187269209
10.514285714285714,1.13352337859249
10.628571428571428,1.0912014344346457
10.742857142857142,1.0357688564696739
10.857142857142858,0.9726384238320873
10.971428571428572,0.9024719797867842
11.085714285714285,0.8233500675037081
11.2,0.7348760792554794
11.314285714285713,0.6411827553594325
11.428571428571429,0.5503767338549344
11.542857142857143,0.47067797628634234
11.657142857142857,0.4061950826825422
11.77142857142857,0.3555225910430001
11.885714285714286,0.31389722989154795
12.0,0.27680571964790696
12.114285714285714,0.24226050893867104
12.228571428571428,0.21067029033446774
12.342857142857142,0.18330500860278176
12.457142857142857,0.16094704433243628
12.571428571428571,0.1434554236413442
12.685714285714285,0.1299593662932388
12.799999999999999,0.11919818058671627
12.914285714285715,0.10990020428727063
13.028571428571428,0.10125102481320275
13.142857142857142,0.09323733135103765
13.257142857142856,0.08651600234535481
13.371428571428572,0.08182438792724217
13.485714285714286,0.07942388932878466
13.6,0.07904520310481764
13.714285714285714,0.08028469444586926
13.828571428571427,0.08297676533690561
13.942857142857143,0.08716456488169212
14.057142857142857,0.09272959499377896
14.17142857142857,0.09904678745712678
14.285714285714285,0.10498087785510492
14.4,0.10926556545273675
14.514285714285714,0.11104387953144161
14.628571428571428,0.11024526732252021
14.742857142857142,0.10757492653587503
14.857142857142856,0.10412698979384781
14.971428571428572,0.10085320441763321
15.085714285714285,0.09819549624476141
15.2,0.096093400864024
15.314285714285713,0.09433754661453317
15.428571428571429,0.0929656554290321
15.542857142857143,0.09231790040428578
15.657142857142857,0.09265175381183055
15.77142857142857,0.09366348327430092
15.885714285714284,0.09441454424955963
16.0,0.09382100584769501
16.114285714285714,0.09135560792011117
16.228571428571428,0.08742316336795197
16.34285714285714,0.08315036773834736
16.457142857142856,0.07978229758179484
16.57142857142857,0.07810016029048367
16.685714285714287,0.07816780836662056
16.8,0.07947523890423387
16.914285714285715,0.08134519824166755
17.02857142857143,0.0833334257528526
17.142857142857142,0.08535369722676511
17.257142857142856,0.08748059152763504
17.37142857142857,0.08967032586018328
17.485714285714284,0.09168467206119461
17.599999999999998,0.0932597672914495
17.714285714285715,0.09431430737513524
17.82857142857143,0.09497756744972477
17.942857142857143,0.09540392683838889
18.057142857142857,0.09554361001262487
18.17142857142857,0.09509317641195163
18.285714285714285,0.09370643547135861
18.4,0.09132799485194022
18.514285714285712,0.08840323168552806
18.628571428571426,0.08578461012801597
18.742857142857144,0.0843265802471735
18.857142857142858,0.08436123120276742
18.97142857142857,0.08538882826626211
19.085714285714285,0.08626019576171955
19.2,0.08581396438903188
19.314285714285713,0.08356588377430864
19.428571428571427,0.0799689484678712
19.54285714285714,0.07608258539991603
19.657142857142855,0.07293460495951556
19.771428571428572,0.0710392566956755
19.885714285714286,0.07032771351920439
20.0,0.07039448952650136
20.114285714285714,0.07078510249627284
20.228571428571428,0.07113602698107303
20.34285714285714,0.0711719132363704
20.457142857142856,0.070680533039444
20.57142857142857,0.06955874020454189
20.685714285714287,0.06790548296128121
20.8,0.06604443143974101
20.914285714285715,0.06439384481096184
21.02857142857143,0.06325001790209969
21.142857142857142,0.06265334747571742
21.257142857142856,0.06243218808706274
21.37142857142857,0.06234828087805781
21.485714285714284,0.062202497076644304
21.599999999999998,0.06186594418795114
21.714285714285715,0.06131640531494473
21.82857142857143,0.060713015133304404
21.942857142857143,0.060399429053724994
22.057142857142857,0.06071497557989834
22.17142857142857,0.06168637867414149
22.285714285714285,0.06286267191203665
22.4,0.06350053593469414
22.514285714285712,0.06301938112697954
22.628571428571426,0.06139150335460946
22.742857142857144,0.05916360985263012
22.857142857142858,0.057099075730541675
22.97142857142857,0.0557109468114815
23.085714285714285,0.054993899679018965
23.2,0.05448696107270874
23.314285714285713,0.05358340898663756
23.428571428571427,0.05187488409245749
23.54285714285714,0.04932339314384367
23.657142857142855,0.04619742834942777
23.771428571428572,0.04288548778817386
23.885714285714286,0.03975161228421395
24.0,0.03708840007018674
24.114285714285714,0.03510065189278956
24.228571428571428,0.03385760481244702
24.34285714285714,0.03324688578391423
24.457142857142856,0.033007440506917604
24.57142857142857,0.03285245416805267
24.685714285714283,0.03259942528220045
24.8,0.032214552843932
24.914285714285715,0.03175954300610201
25.02857142857143,0.03130793934656478
25.142857142857142,0.03090097871446862
25.257142857142856,0.03055651531064246
25.37142857142857,0.03029438375270166
25.485714285714284,0.03014002717812303
25.599999999999998,0.030105120935091788
25.71428571428571,0.030173673363373843
25.82857142857143,0.03031306710121646
25.942857142857143,0.03050035677348004
26.057142857142857,0.030743557175930695
26.17142857142857,0.031087438862742164
26.285714285714285,0.03159683766619772
26.4,0.03230969937098484
26.514285714285712,0.03317497943038552
26.628571428571426,0.03402525936019171
26.742857142857144,0.03462545223025687
26.857142857142858,0.03477639613231874
26.97142857142857,0.03440393177992631
27.085714285714285,0.03358656429013722
27.2,0.032530893349859195
27.314285714285713,0.03152028466302761
27.428571428571427,0.030837368073743286
27.54285714285714,0.030660746013150105
27.657142857142855,0.030982596037913056
27.771428571428572,0.03161635279701805
27.885714285714286,0.03230353855928193
28.0,0.03284470982543845
28.114285714285714,0.03317292240821293
28.228571428571428,0.03335175850254838
28.34285714285714,0.03352132625288359
28.457142857142856,0.03381368606339007
28.57142857142857,0.03427499008078998
28.685714285714283,0.034863285646845675
28.8,0.035551073933660984
28.914285714285715,0.03644045334439501
29.02857142857143,0.03773731086570612
29.142857142857142,0.039548058181422416
29.257142857142856,0.04166067357860212
29.37142857142857,0.043524794985237175
29.485714285714284,0.04448070510810863
29.599999999999998,0.044080567941230164
29.71428571428571,0.042296531292352973
29.82857142857143,0.03952021996856207
29.942857142857143,0.03639163645132564
30.057142857142857,0.033565284002439376
30.17142857142857,0.031525524309417234
30.285714285714285,0.030515107632427024
30.4,0.03055896246719127
30.514285714285712,0.03150642067498093
30.628571428571426,0.03303932816643574
30.74285714285714,0.03468206526795298
30.857142857142858,0.03589699297941031
30.97142857142857,0.03627663888874846
31.085714285714285,0.035716007226204965
31.2,0.03442285164209504
31.314285714285713,0.0327564228714151
31.428571428571427,0.031034355374838528
31.54285714285714,0.029443643962725502
31.657142857142855,0.028060441882349647
31.77142857142857,0.026897475208313683
31.885714285714286,0.025933216686264367
32.0,0.025137760162759912
32.114285714285714,0.024503408419587824
32.22857142857143,0.02405069872816924
32.34285714285714,0.023791641749835325
32.457142857142856,0.02368287924147896
32.57142857142857,0.023620063036651325
32.68571428571428,0.023485080944257997
32.8,0.023208591772160905
32.91428571428571,0.022801937393698894
33.028571428571425,0.022340405689262464
33.14285714285714,0.02191081613193995
33.25714285714285,0.0215541231208783
33.371428571428574,0.021237855441588918
33.48571428571429,0.020879601278311857
33.6,0.020410979423285684
33.714285714285715,0.019840320353875267
33.82857142857143,0.019267672416486255
33.94285714285714,0.01883622735198929
34.05714285714286,0.0186510303191353
34.17142857142857,0.018723073265150398
34.285714285714285,0.0189790793468838
34.4,0.019326883805558356
34.51428571428571,0.019725391854942802
34.628571428571426,0.020206531600320352
34.74285714285714,0.020830126239062594
34.857142857142854,0.021599690243324157
34.97142857142857,0.02240277069178911
35.08571428571428,0.023032910323452283
35.199999999999996,0.023288987025515732
35.31428571428572,0.023076789184066172
35.42857142857143,0.022434533623682945
35.542857142857144,0.021481843789098575
35.65714285714286,0.020362662124197472
35.77142857142857,0.019231120478259946
35.885714285714286,0.01825072012288611
36.0,0.017553791873557385
36.114285714285714,0.01717191859085725
36.22857142857143,0.0170064589788058
36.34285714285714,0.01688049594516401
36.457142857142856,0.016637854520254323
36.57142857142857,0.01622110148411312
36.68571428571428,0.015690903739704866
36.8,0.01519506649433222
36.91428571428571,0.014914979819508341
37.028571428571425,0.015010818191255134
37.14285714285714,0.015573021039538913
37.25714285714285,0.01657851924872514
37.371428571428574,0.017855926646924834
37.48571428571429,0.01908860610209241
37.6,0.019899342882135383
37.714285714285715,0.020015724260367334
37.82857142857143,0.01942336281721611
37.94285714285714,0.018380557774833134
38.05714285714286,0.01726685115448165
38.17142857142857,0.01638156044969825
38.285714285714285,0.01583757618393368
38.4,0.015589041401612855
38.51428571428571,0.01552462720177763
38.628571428571426,0.015550992924715495
38.74285714285714,0.015638693004448513
38.857142857142854,0.015824157368554134
38.97142857142857,0.016161297016135872
39.08571428571428,0.016641868914692104
39.199999999999996,0.017143193382155253
39.31428571428571,0.017457365496671665
39.42857142857143,0.01739415750466637
39.542857142857144,0.016885921731422917
39.65714285714286,0.016018488171200884
39.77142857142857,0.014972074386722049
39.885714285714286,0.013926818969602723
40.0,0.013005979517027987
40.114285714285714,0.012281915916202823
40.22857142857143,0.011806486910059415
40.34285714285714,0.01161541963360218
40.457142857142856,0.011704010064971154
40.57142857142857,0.012015375654245375
40.68571428571428,0.012465813435568813
40.8,0.012981448355408699
40.91428571428571,0.013508074634256372
41.028571428571425,0.013995705897605504
41.14285714285714,0.014391442481789963
41.25714285714285,0.014656621796320556
41.371428571428574,0.014787243137314693
41.48571428571429,0.014811641475482152
41.6,0.014769491011499592
41.714285714285715,0.014700269924824339
41.82857142857143,0.014654938511845048
41.94285714285714,0.014705844152931805
42.05714285714286,0.01491681822180169
42.17142857142857,0.015278043148656745
42.285714285714285,0.015668581792569924
42.4,0.015905978566425012
42.51428571428571,0.015861974500229307
42.628571428571426,0.015550076710800774
42.74285714285714,0.015111100056755547
42.857142857142854,0.014716392532410392
42.97142857142857,0.014473982213840886
43.08571428571428,0.01440079602393719
43.199999999999996,0.014453744936499233
43.31428571428571,0.014570662970656028
43.42857142857143,0.014688350890707627
43.542857142857144,0.01474509137972883
43.65714285714286,0.014690046840269432
43.77142857142857,0.014502124529907972
43.885714285714286,0.014199303121394221
44.0,0.013825212265084954
44.114285714285714,0.0134222399412865
44.22857142857143,0.013011399774306485
44.34285714285714,0.012592867533987785
44.457142857142856,0.012169671267617652
44.57142857142857,0.01178350597332089
44.68571428571428,0.011535440697455525
44.8,0.011560622263654508
44.91428571428571,0.01195174071800631
45.028571428571425,0.012670554626998157
45.14285714285714,0.013514356729133752
45.25714285714285,0.014183010628805873
45.37142857142857,0.014424448744745815
45.48571428571429,0.014170067494715092
45.6,0.013567851605201579
45.714285714285715,0.012892465062792315
45.82857142857143,0.0123981089323771
45.94285714285714,0.01220805319854664
46.05714285714286,0.012291035962009544
46.17142857142857,0.012510482880617669
46.285714285714285,0.012702423850325537
46.4,0.012747566475597447
46.51428571428571,0.012618759061312395
46.628571428571426,0.012387339998868258
46.74285714285714,0.012178563993855335
46.857142857142854,0.012095775478815282
46.97142857142857,0.012163590633494373
47.08571428571428,0.012332051193706305
47.199999999999996,0.012533932256065132
47.31428571428571,0.01274223114416094
47.42857142857143,0.012979723711477837
47.542857142857144,0.013281361396582116
47.65714285714286,0.013651587415031802
47.77142857142857,0.01405227931455115
47.885714285714286,0.014419234785767492
48.0,0.014684826386931662
48.114285714285714,0.014798025220012874
48.22857142857143,0.014746804343323969
48.34285714285714,0.014575150779375087
48.457142857142856,0.014371361345392205
48.57142857142857,0.014221384048559367
48.68571428571428,0.014159013071676715
48.8,0.01416097735715699
48.91428571428571,0.014219283217951559
49.028571428571425,0.014512161613836555
49.14285714285714,0.015710692903055247
49.25714285714285,0.01943288981507922
49.37142857142857,0.028642596876963022
49.48571428571429,0.04736351968365751
49.6,0.07887482231754493
49.714285714285715,0.12238793029706012
49.82857142857143,0.170179705836626
49.94285714285714,0.20847255345553842
50.05714285714286,0.22346382797294617
50.17142857142857,0.20923388983960275
50.285714285714285,0.17145498165548806
50.4,0.12377416912949268
50.51428571428571,0.07994901617196515
50.628571428571426,0.047796082130631905
50.74285714285714,0.028250877982689937
50.857142857142854,0.018186601696483083
50.97142857142857,0.013723352786176639
51.08571428571428,0.012029814795214772
51.199999999999996,0.011584333689951532
51.31428571428571,0.011727114662218967
51.42857142857142,0.012168900031904134
51.542857142857144,0.01270340055748891
51.65714285714286,0.013125920095747236
51.77142857142857,0.013280950882074304
51.885714285714286,0.013142397160239454
52.0,0.012843296245015106
52.114285714285714,0.01262077643171039
52.22857142857143,0.01270020251806849
52.34285714285714,0.013176657421722394
52.457142857142856,0.013955293749901296
52.57142857142857,0.014787959832566394
52.68571428571428,0.015391385819891069
52.8,0.01557595262312612
52.91428571428571,0.015306394251259861
53.028571428571425,0.014674929808436998
53.14285714285714,0.013834562904826042
53.25714285714285,0.012946286916271555
53.37142857142857,0.01215000180626451
53.48571428571429,0.011543319615394586
53.6,0.01116877614767765
53.714285714285715,0.011024585212632932
53.82857142857143,0.01109409601019901
53.94285714285714,0.011362474300779139
54.05714285714286,0.01179938240917788
54.17142857142857,0.012327879468573048
54.285714285714285,0.0128225524643738
54.4,0.01315397600093607
54.51428571428571,0.013249666629630242
54.628571428571426,0.013124649870439972
54.74285714285714,0.012862594349033224
54.857142857142854,0.012568722129184097
54.97142857142857,0.0123297433376491
55.08571428571428,0.012198721938943046
