Frequency,PSD
6.057142857142857,0.43263909918174076
6.171428571428571,0.4266878187414703
6.285714285714286,0.41656931646362183
6.3999999999999995,0.4045474791456211
6.514285714285714,0.3929701841858565
6.628571428571428,0.3852797658586232
6.742857142857143,0.3864128364352845
6.857142857142857,0.4012561259770598
6.9714285714285715,0.43220280650886755
7.085714285714285,0.47774820197502316
7.2,0.5328842679607204
7.314285714285714,0.5902970113715312
7.428571428571428,0.6414972326540614
7.542857142857143,0.6792836725842977
7.657142857142857,0.7029040620480196
7.771428571428571,0.7225140597732109
7.885714285714285,0.7566170587906819
8.0,0.8218433053726636
8.114285714285714,0.9230660675787995
8.228571428571428,1.0521207175183134
8.342857142857143,1.1945442234774506
8.457142857142857,1.3361733851924686
8.571428571428571,1.463143166196179
8.685714285714285,1.5575110075255985
8.799999999999999,1.5971413092012352
8.914285714285715,1.5649694773143008
9.028571428571428,1.4617496947455515
9.142857142857142,1.3101456571889676
9.257142857142856,1.14478155269374
9.371428571428572,0.9954907238175216
9.485714285714286,0.8760973005488305
9.6,0.7850786847808017
9.714285714285714,0.7146765100046665
9.828571428571427,0.660212587378872
9.942857142857143,0.6244223942149127
10.057142857142857,0.6171683353765066
10.17142857142857,0.6517190941931845
10.285714285714285,0.7364986458463763
10.4,0.8637070250827805
10.514285714285714,1.0030451804673803
10.628571428571428,1.1092657000671466
10.742857142857142,1.1419274163341049
10.857142857142858,1.084811993987725
10.971428571428572,0.9525293557043233
11.085714285714285,0.781505227756327
11.2,0.6121754614918037
11.314285714285713,0.47282334762836586
11.428571428571429,0.3728059868582809
11.542857142857143,0.3062705700843201
11.657142857142857,0.2612819565933441
11.77142857142857,0.22775586413016
11.885714285714286,0.2006548888931331
12.0,0.1790270378124293
12.114285714285714,0.1636069175011452
12.228571428571428,0.1550889482961253
12.342857142857142,0.15323446029780138
12.457142857142857,0.1561450056565391
12.571428571428571,0.16007774730309804
12.685714285714285,0.16089494583764868
12.799999999999999,0.156700746347713
12.914285714285715,0.1492558091582034
13.028571428571428,0.14255505211155733
13.142857142857142,0.13986948129018437
13.257142857142856,0.14182466647282332
13.371428571428572,0.1465195482306787
13.485714285714286,0.15092475043627285
13.6,0.15262756056398313
13.714285714285714,0.15122732650710988
13.828571428571427,0.1484944017300064
13.942857142857143,0.1469007384003616
14.057142857142857,0.14755679435633653
14.17142857142857,0.14930349814240673
14.285714285714285,0.14976949562036038
14.4,0.14751107779929207
14.514285714285714,0.14335337875548107
14.628571428571428,0.1397106199476399
14.742857142857142,0.13858503029310462
14.857142857142856,0.14016548197446657
14.971428571428572,0.14310219419719478
15.085714285714285,0.14577593174937412
15.2,0.1472626190465829
15.314285714285713,0.1475098992781184
15.428571428571429,0.1471079164159072
15.542857142857143,0.14697851866158748
15.657142857142857,0.14789005933894056
15.77142857142857,0.14992140773204193
15.885714285714284,0.15248911256136213
16.0,0.15512567244243894
16.114285714285714,0.15817207432040548
16.228571428571428,0.1625397328963479
16.34285714285714,0.16878464375147467
16.457142857142856,0.17635331430209125
16.57142857142857,0.18355118779632582
16.685714285714287,0.1883560033542036
16.8,0.18971656994044872
16.914285714285715,0.18832373991950874
17.02857142857143,0.1859950576528988
17.142857142857142,0.1841415538744397
17.257142857142856,0.18273535061136725
17.37142857142857,0.18058397694716247
17.485714285714284,0.17647017617331368
17.599999999999998,0.17019525221461956
17.714285714285715,0.16283419589037573
17.82857142857143,0.1560342487768934
17.942857142857143,0.1508225075368089
18.057142857142857,0.14689951685744054
18.17142857142857,0.14307508741098338
18.285714285714285,0.1383533142589411
18.4,0.13255398007668934
18.514285714285712,0.12610354257676543
18.628571428571426,0.11959657380342986
18.742857142857144,0.113617056352526
18.857142857142858,0.10864709687916835
18.97142857142857,0.104827795908477
19.085714285714285,0.1017701037625573
19.2,0.09872987050208612
19.314285714285713,0.09510983762105432
19.428571428571427,0.09090475057715054
19.54285714285714,0.0867240112907973
19.657142857142855,0.08337655504207442
19.771428571428572,0.08134254023055623
19.885714285714286,0.08046819823834443
20.0,0.07999092580267249
20.114285714285714,0.0788464018008268
20.228571428571428,0.07617750284130667
20.34285714285714,0.0718678412821879
20.457142857142856,0.06676710687776947
20.57142857142857,0.06233596001511846
20.685714285714287,0.05983788594055749
20.8,0.05962014901348897
20.914285714285715,0.06101011763951198
21.02857142857143,0.06287080704370512
21.142857142857142,0.06432748399619109
21.257142857142856,0.06508090656866239
21.37142857142857,0.06517651399378906
21.485714285714284,0.0646331488467847
21.599999999999998,0.06335311584168736
21.714285714285715,0.061294980641727996
21.82857142857143,0.058597526386966504
21.942857142857143,0.0554850275091122
22.057142857142857,0.052083089010998715
22.17142857142857,0.04838463337458857
22.285714285714285,0.04444054873579673
22.4,0.040579684651267434
22.514285714285712,0.037382156005774006
22.628571428571426,0.035361460026422945
22.742857142857144,0.0346220788717884
22.857142857142858,0.034803735872852806
22.97142857142857,0.035344969863097944
23.085714285714285,0.03580109484824112
23.2,0.03595288559965562
23.314285714285713,0.03570541654184297
23.428571428571427,0.0349743450055333
23.54285714285714,0.03370158435209048
23.657142857142855,0.031970746147806886
23.771428571428572,0.030091921079907498
23.885714285714286,0.028527181399570743
24.0,0.02763240281735828
24.114285714285714,0.027386278541408578
24.228571428571428,0.027377504598836644
24.34285714285714,0.02712306255765034
24.457142857142856,0.02645994668725271
24.57142857142857,0.025685902422541186
24.685714285714283,0.025381736745148115
24.8,0.026089104658252316
24.914285714285715,0.028022340030785083
25.02857142857143,0.030899604118033698
25.142857142857142,0.0339662102571921
25.257142857142856,0.03627174123670932
25.37142857142857,0.03709971905785842
25.485714285714284,0.03626774037212438
25.599999999999998,0.034103991284967106
25.71428571428571,0.03120354021025181
25.82857142857143,0.028199225322099886
25.942857142857143,0.02563445084960446
26.057142857142857,0.023872828764709364
26.17142857142857,0.02300920305206853
26.285714285714285,0.02284637684344005
26.4,0.023008288658795395
26.514285714285712,0.023151666268580732
26.628571428571426,0.023123969310176476
26.742857142857144,0.02293846274520926
26.857142857142858,0.02261183825589427
26.97142857142857,0.022060626720694813
27.085714285714285,0.021195933614266957
27.2,0.02012330307995895
27.314285714285713,0.01919425227439094
27.428571428571427,0.018780136367834564
27.54285714285714,0.01894432307765401
27.657142857142855,0.019328843647405107
27.771428571428572,0.019377456887553254
27.885714285714286,0.018707581437200027
28.0,0.017339889707012193
28.114285714285714,0.015655826367971797
28.228571428571428,0.014173124616798424
28.34285714285714,0.01330828182208962
28.457142857142856,0.013233743092178084
28.57142857142857,0.013855180540967845
28.685714285714283,0.014890385380682755
28.8,0.016008602007794016
28.914285714285715,0.01697411692808871
29.02857142857143,0.017731572245025525
29.142857142857142,0.0183802922689359
29.257142857142856,0.01904358942078985
29.37142857142857,0.01973734878320891
29.485714285714284,0.020359190857602384
29.599999999999998,0.020785638665951452
29.71428571428571,0.020943467784936096
29.82857142857143,0.020790692296990883
29.942857142857143,0.02028465234125807
30.057142857142857,0.019408531579790566
30.17142857142857,0.01821767764485163
30.285714285714285,0.016842700555402206
30.4,0.015453083546727128
30.514285714285712,0.014218020546633733
30.628571428571426,0.013275666058601858
30.74285714285714,0.012703073847918665
30.857142857142858,0.012494076789749729
30.97142857142857,0.012571390438038172
31.085714285714285,0.012843564979572853
31.2,0.013269322857569304
31.314285714285713,0.01386976384447644
31.428571428571427,0.014674827295677633
31.54285714285714,0.015655451219311087
31.657142857142855,0.016701050608028897
31.77142857142857,0.017656909137745983
31.885714285714286,0.018392414050784386
32.0,0.018851154549341966
32.114285714285714,0.019041935644744615
32.22857142857143,0.01897697680983649
32.34285714285714,0.018621353170712722
32.457142857142856,0.017916323885951112
32.57142857142857,0.016862565148203425
32.68571428571428,0.015583001036874617
32.8,0.014311334962232615
32.91428571428571,0.013325664759050278
33.028571428571425,0.012864058609760028
33.14285714285714,0.013031109957608518
33.25714285714285,0.013717408812517347
33.371428571428574,0.014598349456248877
33.48571428571429,0.015262112948216422
33.6,0.015414604368044786
33.714285714285715,0.015016049169330027
33.82857142857143,0.014242352270094627
33.94285714285714,0.013327217579827862
34.05714285714286,0.012445767770859666
34.17142857142857,0.011714518323941358
34.285714285714285,0.011232261049644776
34.4,0.01107167255965819
34.51428571428571,0.011235437348304674
34.628571428571426,0.011645503979587506
34.74285714285714,0.012180528780292679
34.857142857142854,0.01271772635515832
34.97142857142857,0.013157890203512133
35.08571428571428,0.013452367831403873
35.199999999999996,0.013619090680639517
35.31428571428572,0.013701362370875051
35.42857142857143,0.013691565164788786
35.542857142857144,0.013518132442256626
35.65714285714286,0.013129237925206736
35.77142857142857,0.012575424774500644
35.885714285714286,0.011984091360276096
36.0,0.011446927717382219
36.114285714285714,0.01094830005634711
36.22857142857143,0.0104219443951222
36.34285714285714,0.0098779897495325
36.457142857142856,0.009457679475509595
36.57142857142857,0.009344916114468792
36.68571428571428,0.009608024300980303
36.8,0.010114905534195596
36.91428571428571,0.01060203750225446
37.028571428571425,0.010839101967156317
37.14285714285714,0.010744626547681515
37.25714285714285,0.010370103431017184
37.371428571428574,0.009813284538543987
37.48571428571429,0.009169884706398663
37.6,0.0085424294965999
37.714285714285715,0.008042650724440924
37.82857142857143,0.007755597458487166
37.94285714285714,0.007701060393456443
38.05714285714286,0.007828149989273192
38.17142857142857,0.008040282459523805
38.285714285714285,0.008236644762706977
38.4,0.00835658668362127
38.51428571428571,0.008398016404958939
38.628571428571426,0.008390208316209057
38.74285714285714,0.00835287465983801
38.857142857142854,0.00829128654904369
38.97142857142857,0.008217875051652501
39.08571428571428,0.008145436090481604
39.199999999999996,0.00805128259414009
39.31428571428571,0.007880540307958619
39.42857142857143,0.007611156445438775
39.542857142857144,0.007300855187425439
39.65714285714286,0.00704420664027447
39.77142857142857,0.006885866784890338
39.885714285714286,0.006793183362161547
40.0,0.006713804911587224
40.114285714285714,0.006645763216854091
40.22857142857143,0.006644555321883114
40.34285714285714,0.006764964938882664
40.457142857142856,0.006996627723224026
40.57142857142857,0.007252665991172873
40.68571428571428,0.007423372778087279
40.8,0.007452063720046185
40.91428571428571,0.007367054208275195
41.028571428571425,0.007241619994347215
41.14285714285714,0.007132975923164378
41.25714285714285,0.007077148644813512
41.371428571428574,0.007133285814791692
41.48571428571429,0.007386737569099363
41.6,0.00787288220136812
41.714285714285715,0.008507160868496698
41.82857142857143,0.00911508772053863
41.94285714285714,0.009536401192331038
42.05714285714286,0.009704283647154768
42.17142857142857,0.00965409377604037
42.285714285714285,0.009485191383911542
42.4,0.009300605819600925
42.51428571428571,0.009144530599799236
42.628571428571426,0.008984881806655342
42.74285714285714,0.008771332085947025
42.857142857142854,0.008515695679606135
42.97142857142857,0.008302603545326097
43.08571428571428,0.008213894008636426
43.199999999999996,0.008248188813748652
43.31428571428571,0.008317677727238869
43.42857142857143,0.008319984556737641
43.542857142857144,0.008216937079818055
43.65714285714286,0.008057819932026356
43.77142857142857,0.00793592994409829
43.885714285714286,0.007916951022990702
44.0,0.007994786822799254
44.114285714285714,0.008107713071918283
44.22857142857143,0.008201746578621313
44.34285714285714,0.008288380476744036
44.457142857142856,0.008441215089364695
44.57142857142857,0.008724349394830737
44.68571428571428,0.009111694924882953
44.8,0.009473237130416501
44.91428571428571,0.009643901330235632
45.028571428571425,0.009514400494821317
45.14285714285714,0.009076487975947914
45.25714285714285,0.008411993775725194
45.37142857142857,0.007654073304350013
45.48571428571429,0.00694143685876421
45.6,0.006376727087031856
45.714285714285715,0.006004630837310782
45.82857142857143,0.005816478909749323
45.94285714285714,0.005769220555467126
46.05714285714286,0.005805881521306533
46.17142857142857,0.005876313600826581
46.285714285714285,0.005955470558206827
46.4,0.006046143201055541
46.51428571428571,0.0061595565608024575
46.628571428571426,0.006290403558492561
46.74285714285714,0.006413193218755277
46.857142857142854,0.0065074885102879045
46.97142857142857,0.006589383329601616
47.08571428571428,0.00671471869920557
47.199999999999996,0.006939055926497482
47.31428571428571,0.007261392958918441
47.42857142857143,0.007606929622667931
47.542857142857144,0.007877230643770987
47.65714285714286,0.008028773701551202
47.77142857142857,0.008107060497238767
47.885714285714286,0.00820322638429438
48.0,0.008369811033424067
48.114285714285714,0.008566649093665928
48.22857142857143,0.008683431412310805
48.34285714285714,0.008622471081177576
48.457142857142856,0.00837213254770957
48.57142857142857,0.008011172826068778
48.68571428571428,0.007654802494323526
48.8,0.007406567791964594
48.91428571428571,0.0073619492188077605
49.028571428571425,0.007684004494374222
49.14285714285714,0.008836827986335638
49.25714285714285,0.012179864541325398
49.37142857142857,0.02102129292314562
49.48571428571429,0.04146536742355442
49.6,0.0810539746860065
49.714285714285715,0.14315066503830737
49.82857142857143,0.21893837153832185
49.94285714285714,0.2849714484989281
50.05714285714286,0.3135764376859835
50.17142857142857,0.2912474411978586
50.285714285714285,0.2287696293963581
50.4,0.15296468308355154
50.51428571428571,0.08846729163617315
50.628571428571426,0.04598828107306362
50.74285714285714,0.023421557062803106
50.857142857142854,0.013468865198007019
50.97142857142857,0.00963816825143788
51.08571428571428,0.0081183755534276
51.199999999999996,0.007235861980532367
51.31428571428571,0.0064679575774585895
51.42857142857142,0.005774377662912205
51.542857142857144,0.0052547838729858996
51.65714285714286,0.004991787436877507
51.77142857142857,0.004989332652921539
51.885714285714286,0.005172542575627393
52.0,0.005436854366340591
52.114285714285714,0.00571302365514302
52.22857142857143,0.005992891746300495
52.34285714285714,0.006295408067091635
52.457142857142856,0.0066160379003141635
52.57142857142857,0.006912417463536825
52.68571428571428,0.007127221155562249
52.8,0.0072145812637555325
52.91428571428571,0.0071560179356860674
53.028571428571425,0.006972233113281597
53.14285714285714,0.006721209601168584
53.25714285714285,0.00646721783672777
53.37142857142857,0.006243650691273914
53.48571428571429,0.006055458004397914
53.6,0.005920137988852348
53.714285714285715,0.005889394780963316
53.82857142857143,0.0060134318331125595
53.94285714285714,0.006283606579875982
54.05714285714286,0.006619617769720283
54.17142857142857,0.006918185404974362
54.285714285714285,0.007114795798391664
54.4,0.007203851377773095
54.51428571428571,0.007213063515909397
54.628571428571426,0.007170462008157026
54.74285714285714,0.0070949286190602895
54.857142857142854,0.007005317868915554
54.97142857142857,0.006925791634912903
55.08571428571428,0.006879386244915036
