Frequency,PSD
6.0,0.5000900475802551
6.08,0.5006358406097312
6.16,0.5017257938564956
6.24,0.5033566379827893
6.32,0.5055234598710516
6.4,0.5082196921713052
6.48,0.5114371001573439
6.5600000000000005,0.5151657665559091
6.640000000000001,0.5193940751598374
6.72,0.5241086941704236
6.8,0.5292945603337056
6.88,0.534934865037961
6.96,0.541011043623461
7.04,0.5475027692186976
7.12,0.5543879524583007
7.2,0.5616427484553498
7.28,0.5692415723935978
7.36,0.577157125072381
7.44,0.585360429678063
7.5200000000000005,0.5938208809703958
7.6000000000000005,0.6025063079601696
7.68,0.6113830510162664
7.76,0.6204160541764352
7.84,0.6295689732478706
7.92,0.6388043000725188
8.0,0.6480835030999992
8.08,0.6573671841605739
8.16,0.6666152510647629
8.24,0.6757871053784972
8.32,0.6848418444371633
8.4,0.6937384763730643
8.48,0.7024361466436566
8.56,0.7108943742678309
8.64,0.7190732957101388
8.72,0.7269339141041721
8.8,0.7344383512822504
8.88,0.7415500998851516
8.96,0.7482342726685787
9.040000000000001,0.7544578460078109
9.120000000000001,0.7601898945334118
9.200000000000001,0.7654018138131047
9.28,0.7700675280312705
9.36,0.7741636797102311
9.44,0.7776697986675857
9.52,0.7805684476111724
9.6,0.7828453420361243
9.68,0.7844894424039599
9.76,0.7854930169472546
9.84,0.7858516738493646
9.92,0.7855643619898144
10.0,0.7846333399140253
10.08,0.7830641131718368
10.16,0.7808653406627087
10.24,0.778048711116105
10.32,0.7746287913125544
10.4,0.7706228481036165
10.48,0.7660506467070693
10.56,0.760934228127498
10.64,0.7552976688733284
10.72,0.7491668264018257
10.8,0.7425690739175782
10.88,0.7355330282732052
10.96,0.7280882747708296
11.040000000000001,0.7202650926385694
11.120000000000001,0.712094184859081
11.200000000000001,0.7036064158600672
11.28,0.6948325603444866
11.36,0.6858030662473322
11.44,0.6765478344641682
11.52,0.6670960176131002
11.6,0.6574758396764067
11.68,0.6477144379311438
11.76,0.637837728130441
11.84,0.6278702934495417
11.92,0.6178352972733574
12.0,0.6077544194849822
12.08,0.5976478155260811
12.16,0.587534097147943
12.24,0.5774303334625948
12.32,0.5673520706415868
12.4,0.5573133683992392
12.48,0.5473268512390959
12.56,0.537403772337368
12.64,0.5275540878841157
12.72,0.517786539699343
12.8,0.5081087439834548
12.88,0.49852728414502656
12.96,0.48904780576817597
13.040000000000001,0.4796751119311105
13.120000000000001,0.4704132572603388
13.200000000000001,0.46126563929525743
13.280000000000001,0.45223508593905715
13.36,0.4433239379781456
13.44,0.434534125858027
13.52,0.42586724010382604
13.6,0.417324594964135
13.68,0.40890728503404034
13.76,0.40061623477432484
13.84,0.39245224098696563
13.92,0.38441600843097234
14.0,0.37650817886686105
14.08,0.3687293539027731
14.16,0.3610801120811857
14.24,0.3535610206934369
14.32,0.34617264284148125
14.4,0.3389155402841063
14.48,0.3317902726102307
14.56,0.32479739327677737
14.64,0.3179374430348979
14.72,0.3112109412478093
14.8,0.3046183755778115
14.88,0.29816019049061737
14.96,0.291836774993134
15.040000000000001,0.2856484499872436
15.120000000000001,0.2795954555876604
15.200000000000001,0.2736779387171199
15.280000000000001,0.26789594125728516
15.36,0.2622493889990469
15.44,0.25673808160138084
15.52,0.2513616837336521
15.6,0.24611971754215972
15.68,0.24101155654782355
15.76,0.23603642104822703
15.84,0.2311933750638909
15.92,0.22648132483582173
16.0,0.2218990188493777
16.080000000000002,0.217445049328699
16.16,0.21311785511683895
16.240000000000002,0.208915725829895
16.32,0.2048368071494135
16.4,0.2008791070968388
16.48,0.19704050311733462
16.56,0.19331874978854716
16.64,0.18971148696325768
16.72,0.18621624815377907
16.8,0.18283046897060864
16.88,0.17955149543830287
16.96,0.17637659202768938
17.04,0.1733029492650204
17.12,0.17032769080497265
17.2,0.1674478798848278
17.28,0.16466052511074955
17.36,0.16196258556282386
17.44,0.15935097524221575
17.52,0.15682256692015564
17.6,0.15437419548321313
17.68,0.15200266090109008
17.76,0.14970473097075568
17.84,0.14747714401295453
17.92,0.145316611712968
18.0,0.14321982230615368
18.080000000000002,0.14118344430965937
18.16,0.1392041309944488
18.240000000000002,0.13727852577636504
18.32,0.13540326868159253
18.400000000000002,0.13357500401113218
18.48,0.13179038929154288
18.56,0.1300461055563321
18.64,0.12833886895528082
18.72,0.12666544363915555
18.8,0.12502265581631652
18.88,0.1234074088274115
18.96,0.12181669903635675
19.04,0.12024763229188645
19.12,0.11869744067569482
19.2,0.11716349922204986
19.28,0.11564334227098878
19.36,0.11413467910377782
19.44,0.1126354085059387
19.52,0.11114363191018718
19.6,0.10965766478909159
19.68,0.10817604599486944
19.76,0.10669754478080215
19.84,0.10522116528430006
19.92,0.10374614830444856
20.0,0.10227197026537205
20.080000000000002,0.10079833931929147
20.16,0.09932518860787895
20.240000000000002,0.09785266676550204
20.32,0.09638112581130868
20.400000000000002,0.09491110663692655
20.48,0.09344332235112604
20.56,0.09197863979051324
20.64,0.09051805954485878
20.72,0.08906269487591964
20.8,0.0876137499288157
20.88,0.0861724976447051
20.96,0.08474025778253413
21.04,0.08331837544622053
21.12,0.08190820049227208
21.2,0.08051106816236415
21.28,0.07912828124683596
21.36,0.07776109403973896
21.44,0.0764106982953904
21.52,0.07507821134195669
21.6,0.07376466645102485
21.68,0.07247100550508054
21.76,0.07119807394888307
21.84,0.06994661795745535
21.92,0.0687172837041272
22.0,0.06751061856803836
22.080000000000002,0.0663270740826939
22.16,0.06516701039637145
22.240000000000002,0.0640307019919359
22.32,0.06291834439825322
22.400000000000002,0.061830061617920845
22.48,0.0607659139963416
22.56,0.05972590626481826
22.64,0.0587099955048072
22.72,0.057718098800974504
22.8,0.05675010037640364
22.88,0.05580585803320142
22.96,0.0548852087548536
23.04,0.05398797336186373
23.12,0.05311396014845909
23.2,0.05226296746436607
23.28,0.05143478524092095
23.36,0.05062919549412928
23.44,0.04984597186796458
23.52,0.049084878308491994
23.6,0.04834566698276489
23.68,0.04762807557544351
23.76,0.04693182411045878
23.84,0.04625661145460115
23.92,0.04560211166468636
24.0,0.044967970340003625
24.080000000000002,0.044353801137323415
24.16,0.04375918259717061
24.240000000000002,0.04318365541772706
24.32,0.042626720297149534
24.400000000000002,0.042087836446770936
24.48,0.0415664208572062
24.560000000000002,0.0410618483774159
24.64,0.04057345264388466
24.72,0.04010052787388624
24.8,0.039642331513909355
24.88,0.03919808771227337
24.96,0.038766991564263685
25.04,0.038348214059269685
25.12,0.037940907642744826
25.2,0.0375442122917215
25.28,0.03715726199131182
25.36,0.036779191491296444
25.44,0.0364091432166654
25.52,0.036046274203816946
25.6,0.035689762935009584
25.68,0.03533881594747075
25.76,0.034992674100086454
25.84,0.03465061838960505
25.92,0.034311975219456184
26.0,0.03397612103729676
26.080000000000002,0.033642486271848314
26.16,0.033310558515122
26.240000000000002,0.03297988491229214
26.32,0.03265007373791383
26.400000000000002,0.032320795153448934
26.48,0.03199178115682451
26.560000000000002,0.03166282474962256
26.64,0.031333778361209194
26.72,0.03100455158136263
26.8,0.03067510826354515
26.88,0.03034546306973522
26.96,0.03001567753454635
27.04,0.02968585573119414
27.12,0.029356139624706512
27.2,0.02902670419865871
27.28,0.02869775244077506
27.36,0.028369510270075945
27.44,0.02804222148408734
27.52,0.027716142799128745
27.6,0.027391539050132016
27.68,0.027068678609009002
27.76,0.026747829072579794
27.84,0.026429253262680797
27.92,0.026113205572600235
28.0,0.025799928685574985
28.080000000000002,0.025489650683000225
28.16,0.025182582552363254
28.240000000000002,0.02487891609789876
28.32,0.024578822250646157
28.400000000000002,0.024282449769086754
28.48,0.023989924316849317
28.560000000000002,0.023701347900144925
28.64,0.023416798644587934
28.72,0.023136330888846708
28.8,0.02285997557106942
28.88,0.02258774088318865
28.96,0.02231961316789498
29.04,0.022055558033222865
29.12,0.02179552166017163
29.2,0.021539432279513084
29.28,0.02128720179480006
29.36,0.021038727529529677
29.44,0.020793894077297346
29.52,0.02055257523462862
29.6,0.020314635996858274
29.68,0.02007993459798968
29.76,0.01984832457585016
29.84,0.019619656844084787
29.92,0.01939378175263324
30.0,0.01917055111830565
30.080000000000002,0.01894982020700587
30.16,0.018731449649055702
30.240000000000002,0.01851530726902234
30.32,0.018301269811512387
30.400000000000002,0.018089224544599207
30.48,0.017879070722983295
30.560000000000002,0.017670720893665323
30.64,0.017464102027904736
30.72,0.017259156464554403
30.8,0.017055842651528118
30.88,0.01685413567418656
30.96,0.016654027561798183
31.04,0.016455527365921166
31.12,0.01625866100755134
31.2,0.016063470893101024
31.28,0.01587001530269278
31.36,0.015678367557777555
31.44,0.015488614978658
31.52,0.015300857646013896
31.6,0.01511520698392178
31.68,0.014931784185039022
31.76,0.014750718501490548
31.84,0.014572145427499345
31.92,0.014396204801843046
32.0,0.01422303885974653
32.08,0.014052790264801909
32.160000000000004,0.013885600151867976
32.24,0.013721606211671185
32.32,0.013560940846966015
32.4,0.013403729428662916
32.480000000000004,0.013250088678295902
32.56,0.013100125200674603
32.64,0.012953934187559642
32.72,0.012811598309856023
32.8,0.012673186812168061
32.88,0.012538754819756127
32.96,0.012408342864056423
33.04,0.01228197662909002
33.12,0.012159666917405547
33.2,0.012041409830782272
33.28,0.011927187157848816
33.36,0.011816966958149355
33.44,0.01171070433006324
33.52,0.011608342348432851
33.6,0.011509813156767475
33.68,0.011415039198534434
33.76,0.011323934572232897
33.84,0.011236406495712909
33.92,0.01115235686641242
34.0,0.011071683905824923
34.08,0.010994283878405836
34.160000000000004,0.010920052877236255
34.24,0.010848888670870907
34.32,0.0107806926078388
34.4,0.010715371577031358
34.480000000000004,0.010652840023610164
34.56,0.010593022020916217
34.64,0.010535853399063499
34.72,0.010481283930342016
34.800000000000004,0.010429279570127716
34.88,0.01037982474967624
34.96,0.010332924713904769
35.04,0.010288607893059925
35.12,0.010246928292075479
35.2,0.010207967875509212
35.28,0.010171838919356517
35.36,0.01013868629389596
35.44,0.010108689634266484
35.52,0.010082065347895294
35.6,0.010059068400482046
35.68,0.01003999381526828
35.76,0.01002517781408608
35.84,0.010014998523503555
35.92,0.010009876165578161
36.0,0.01001027265061645
36.08,0.010016690489177825
36.160000000000004,0.010029670942669645
36.24,0.010049791336435684
36.32,0.010077661466454209
36.4,0.01011391904075759
36.480000000000004,0.010159224109490037
36.56,0.010214252453165826
36.64,0.01027968791702024
36.72,0.01035621370022265
36.800000000000004,0.010444502631836664
36.88,0.010545206490420204
36.96,0.010658944450582776
37.04,0.010786290767140716
37.12,0.010927761835110315
37.2,0.011083802790951041
37.28,0.011254773846533271
37.36,0.011440936571422523
37.44,0.011642440360527891
37.52,0.011859309342113308
37.6,0.01209142999491577
37.68,0.0123385397519165
37.76,0.012600216871570678
37.84,0.01287587185448203
37.92,0.013164740674224415
38.0,0.013465880074995046
38.08,0.013778165165975912
38.160000000000004,0.014100289512735315
38.24,0.014430767890026945
38.32,0.014767941818410926
38.4,0.015109987959870215
38.480000000000004,0.015454929395913516
38.56,0.015800649756520395
38.64,0.016144910110907122
38.72,0.016485368472722483
38.800000000000004,0.016819601714352594
38.88,0.01714512962892412
38.96,0.017459440825838758
39.04,0.017760020097651808
39.12,0.018044376854214172
39.2,0.018310074185451764
39.28,0.018554758088082608
39.36,0.01877618637484929
39.44,0.018972256778160546
39.52,0.019141033763827767
39.6,0.019280773584976284
39.68,0.01938994713111212
39.76,0.019467260162293314
39.84,0.019511670562715307
39.92,0.0195224023008067
40.0,0.0194989558429647
40.08,0.019441114833928325
40.160000000000004,0.019348948926937212
40.24,0.01922281271957068
40.32,0.01906334082473936
40.4,0.01887143917894985
40.480000000000004,0.01864827275992128
40.56,0.018395249951258606
40.64,0.018114003851634974
40.72,0.017806370878462374
40.800000000000004,0.017474367060194167
40.88,0.017120162446294763
40.96,0.01674605408891256
41.04,0.01635443806502323
41.12,0.01594778101221731
41.2,0.015528591645562412
41.28,0.015099392707556801
41.36,0.014662693778792306
41.44,0.01422096534447974
41.52,0.013776614472542767
41.6,0.013331962413785252
41.68,0.012889224385006622
41.76,0.012450491743250677
41.84,0.012017716705027968
41.92,0.011592699709709478
42.0,0.011177079472623102
42.08,0.01077232572194095
42.160000000000004,0.010379734565239551
42.24,0.01000042638759659
42.32,0.009635346144013377
42.4,0.009285265875364278
42.480000000000004,0.008950789249407395
42.56,0.008632357906821564
42.64,0.00833025937683001
42.72,0.00804463631760564
42.800000000000004,0.007775496833048057
42.88,0.007522725619319563
42.96,0.00728609570121309
43.04,0.007065280529425988
43.12,0.006859866224518197
43.2,0.006669363771057797
43.28,0.006493220985521681
43.36,0.006330834103266945
43.44,0.0061815588526519276
43.52,0.006044720907556565
43.6,0.005919625632583945
43.68,0.005805567057592183
43.76,0.005701836039504085
43.84,0.005607727589187813
43.92,0.005522547359309658
44.0,0.005445617305222155
44.08,0.0053762805449968
44.160000000000004,0.005313905456567321
44.24,0.0052578890595917065
44.32,0.005207659737059131
44.4,0.005162679356985065
44.480000000000004,0.005122444857794985
44.56,0.005086489362375289
44.64,0.00505438288541305
44.72,0.00502573269671275
44.800000000000004,0.005000183399887677
44.88,0.004977416781342427
44.96,0.004957151479001581
45.04,0.004939142513993022
45.12,0.004923180721651882
45.2,0.004909092110965902
45.28,0.004896737174110762
45.36,0.004886010160207194
45.44,0.004876838320022631
45.52,0.0048691811212126825
45.6,0.004863029426987733
45.68,0.004858404624934623
45.76,0.004855357687275439
45.84,0.004853968139183918
45.92,0.004854342908058012
46.0,0.004856615023927594
46.08,0.004860942139564171
46.160000000000004,0.004867504838402372
46.24,0.004876504699164331
46.32,0.004888162088087043
46.4,0.004902713652948287
46.480000000000004,0.0049204094976111005
46.56,0.004941510021558614
46.64,0.004966282415785573
46.72,0.004994996814351362
46.800000000000004,0.005027922109780095
46.88,0.005065321450127922
46.96,0.0051074474457732215
47.04,0.0051545371245772555
47.12,0.005206806684799874
47.2,0.00526444610573688
47.28,0.005327613686231542
47.36,0.005396430590667734
47.44,0.005470975490502444
47.52,0.005551279396521502
47.6,0.005637320782534844
47.68,0.0057290211048637366
47.76,0.005826240823507377
47.84,0.005928776030062061
47.92,0.006036355784187486
48.0,0.006148640254519909
48.08,0.006265219751419131
48.160000000000004,0.0063856147278058654
48.24,0.006509276810701559
48.32,0.0066355909101013105
48.4,0.006763878433737047
48.480000000000004,0.006893401616433394
48.56,0.007023368951530693
48.64,0.007152941689670643
48.72,0.00728124134763513
48.800000000000004,0.007407358147412859
48.88,0.007530360283819152
48.96,0.007649303898383097
49.04,0.0077632436183974925
49.120000000000005,0.007871243503557047
49.2,0.007972388228981355
49.28,0.008065794323069368
49.36,0.008150621271951677
49.44,0.00822608229953897
49.52,0.008291454633550192
49.6,0.008346089073458986
49.68,0.00838941868604096
49.76,0.008420966467950763
49.84,0.008440351832282034
49.92,0.00844729579696021
50.0,0.008441624776669519
50.08,0.00842327290622941
50.160000000000004,0.008392282851337387
50.24,0.008348805091665697
50.32,0.008293095690791001
50.4,0.008225512596578503
50.480000000000004,0.008146510543766885
50.56,0.008056634656914575
50.64,0.007956512875932891
50.72,0.007846847347611728
50.800000000000004,0.007728404944327173
50.88,0.007602007085148205
50.96,0.007468519044549742
51.04,0.007328838939711056
51.120000000000005,0.007183886588899603
51.2,0.007034592430769197
51.28,0.00688188668769147
51.36,0.006726688945799964
51.44,0.006569898310578009
51.52,0.0064123842800414485
51.6,0.006254978458331874
51.68,0.006098467211418119
51.76,0.005943585344145696
51.84,0.005791010854697999
51.92,0.0056413607992012935
52.0,0.005495188276265833
52.08,0.0053529805192533645
52.160000000000004,0.005215158063445842
52.24,0.005082074936486507
52.32,0.004954019803796606
52.4,0.0048312179864405495
52.480000000000004,0.004713834257261771
52.56,0.004601976312216174
52.64,0.004495698807666232
52.72,0.004395007850993005
52.800000000000004,0.004299865831086996
52.88,0.004210196476981754
52.96,0.004125890036850493
53.04,0.004046808475581332
53.120000000000005,0.003972790596883163
53.2,0.003903657005062339
53.28,0.003839214831935253
53.36,0.0037792621654970633
53.44,0.0037235921286242436
53.52,0.0036719965679811494
53.6,0.0036242693251203406
53.68,0.0035802090732801667
53.76,0.003539621714345703
53.84,0.003502322340678166
53.92,0.0034681367758318234
54.0,0.0034369027164756925
54.08,0.003408470504975363
54.160000000000004,0.003382703568042323
54.24,0.003359478561537968
54.32,0.003338685264954247
54.4,0.003320226271266535
54.480000000000004,0.003304016518809361
54.56,0.0032899827116148373
54.64,0.0032780626733435836
54.72,0.0032682046776045613
54.800000000000004,0.003260366794207969
54.88,0.0032545162868137228
54.96,0.0032506290926387644
55.04,0.0032486894094886642
