Frequency,PSD
6.057142857142857,0.11376608819509931
6.171428571428571,0.12093235502862099
6.285714285714286,0.13418954712459105
6.3999999999999995,0.15111612072554875
6.514285714285714,0.16796620882214675
6.628571428571428,0.18047360532841172
6.742857142857143,0.1853771163307094
6.857142857142857,0.18199812446878577
6.9714285714285715,0.17279950232677554
7.085714285714285,0.16218481145856273
7.2,0.1541329237158696
7.314285714285714,0.1504562006801893
7.428571428571428,0.15090810690737655
7.542857142857143,0.15448995332844598
7.657142857142857,0.16037474234519156
7.771428571428571,0.16778844408813542
7.885714285714285,0.17549700072361393
8.0,0.1818147327535552
8.114285714285714,0.1854292322036042
8.228571428571428,0.18659668008293684
8.342857142857143,0.1878501603258808
8.457142857142857,0.19340079406843233
8.571428571428571,0.20696431453346184
8.685714285714285,0.22901275571194862
8.799999999999999,0.25580089816626606
8.914285714285715,0.2818672147167282
9.028571428571428,0.30442231622267313
9.142857142857142,0.3256025792145316
9.257142857142856,0.35064880477075056
9.371428571428572,0.38466312129877583
9.485714285714286,0.4318392033950703
9.6,0.4967656563578775
9.714285714285714,0.5827341189746345
9.828571428571427,0.6843993756876972
9.942857142857143,0.781177122664805
10.057142857142857,0.8421076164975877
10.17142857142857,0.8435034125312046
10.285714285714285,0.7856437411682248
10.4,0.6925754999531748
10.514285714285714,0.594900969648628
10.628571428571428,0.512027583189948
10.742857142857142,0.44840243034188354
10.857142857142858,0.4013598273287692
10.971428571428572,0.368120556932554
11.085714285714285,0.3461189856804634
11.2,0.33094770035843607
11.314285714285713,0.316649160949744
11.428571428571429,0.29810339453921486
11.542857142857143,0.27331941246996344
11.657142857142857,0.24420277729997186
11.77142857142857,0.21519646376575732
11.885714285714286,0.19049116536615576
12.0,0.17177074891514604
12.114285714285714,0.15796937837331015
12.228571428571428,0.14674002179502818
12.342857142857142,0.13622732364321122
12.457142857142857,0.12604468328224216
12.571428571428571,0.11722829284772522
12.685714285714285,0.111391977280442
12.799999999999999,0.10944173892074062
12.914285714285715,0.11056520532942656
13.028571428571428,0.11234813905851668
13.142857142857142,0.11206686250156278
13.257142857142856,0.10814136709133376
13.371428571428572,0.10075345194612458
13.485714285714286,0.09158166097608353
13.6,0.08310018932181357
13.714285714285714,0.07763328081769638
13.828571428571427,0.07632713798894501
13.942857142857143,0.07861132961129308
14.057142857142857,0.082674014769002
14.17142857142857,0.08667178328201956
14.285714285714285,0.0897028803966509
14.4,0.0918362518866967
14.514285714285714,0.09347058708718646
14.628571428571428,0.09487186163840969
14.742857142857142,0.09625730157174635
14.857142857142856,0.09799338644980635
14.971428571428572,0.10038234986723135
15.085714285714285,0.10309452650553477
15.2,0.10486088063701363
15.314285714285713,0.10400772747871953
15.428571428571429,0.09965281745559802
15.542857142857143,0.09256224566948247
15.657142857142857,0.08484049224991191
15.77142857142857,0.07871887598283418
15.885714285714284,0.07544805640472405
16.0,0.07497512609090534
16.114285714285714,0.07632032932232734
16.228571428571428,0.07820621228879734
16.34285714285714,0.0796082506568039
16.457142857142856,0.08008709459865372
16.57142857142857,0.07984256285226357
16.685714285714287,0.07952046457994788
16.8,0.07991468062314958
16.914285714285715,0.08167408961184451
17.02857142857143,0.08500741833002043
17.142857142857142,0.08942139508329082
17.257142857142856,0.09368593252442184
17.37142857142857,0.09622091592737064
17.485714285714284,0.09586203289643817
17.599999999999998,0.09263287887771726
17.714285714285715,0.08795851877016668
17.82857142857143,0.08397233391401922
17.942857142857143,0.08220179525200495
18.057142857142857,0.08250751393445278
18.17142857142857,0.08316874698386814
18.285714285714285,0.08227882906600002
18.4,0.07944753754431863
18.514285714285712,0.07624225811924988
18.628571428571426,0.07485925256623278
18.742857142857144,0.07636999374143001
18.857142857142858,0.08023414998932012
18.97142857142857,0.08512800320969266
19.085714285714285,0.08979881230404205
19.2,0.09325043846093915
19.314285714285713,0.09478218913423063
19.428571428571427,0.09436121048449214
19.54285714285714,0.09287807447826057
19.657142857142855,0.09167873519400822
19.771428571428572,0.09165742305748742
19.885714285714286,0.09279270469068612
20.0,0.09451532916169333
20.114285714285714,0.09643979525116227
20.228571428571428,0.09871872363137481
20.34285714285714,0.10169466015308617
20.457142857142856,0.10521526518139562
20.57142857142857,0.10835307936788985
20.685714285714287,0.10986025120441387
20.8,0.10889610366235622
20.914285714285715,0.10538004636054771
21.02857142857143,0.09985238881759867
21.142857142857142,0.09313730937746789
21.257142857142856,0.08606138195139137
21.37142857142857,0.07934985468602655
21.485714285714284,0.07370075191309443
21.599999999999998,0.06983511844577778
21.714285714285715,0.06829308469380949
21.82857142857143,0.06904743899882859
21.942857142857143,0.07129177015767157
22.057142857142857,0.0736735204989502
22.17142857142857,0.07489142337800536
22.285714285714285,0.0743067389610924
22.4,0.07219248807540392
22.514285714285712,0.06944345401983083
22.628571428571426,0.06694351018677562
22.742857142857144,0.06509967143466835
22.857142857142858,0.06390854551945763
22.97142857142857,0.063362611763911
23.085714285714285,0.06365449379961459
23.2,0.06489882828082177
23.314285714285713,0.0666481712469916
23.428571428571427,0.06777187855898956
23.54285714285714,0.06701055908693956
23.657142857142855,0.06386546492453844
23.771428571428572,0.05904886507686567
23.885714285714286,0.05406048521115164
24.0,0.05026339940664637
24.114285714285714,0.0482263639138731
24.228571428571428,0.04773026993251891
24.34285714285714,0.048218392511608546
24.457142857142856,0.049221489861012165
24.57142857142857,0.0504880939864611
24.685714285714283,0.05187731740190617
24.8,0.05323698184721552
24.914285714285715,0.05440759572012729
25.02857142857143,0.05527491461307758
25.142857142857142,0.05571404086387345
25.257142857142856,0.05548391106946998
25.37142857142857,0.05433072699593475
25.485714285714284,0.05231380219628187
25.599999999999998,0.04995305845310084
25.71428571428571,0.0479203222279065
25.82857142857143,0.04656612165700631
25.942857142857143,0.045753576916919766
26.057142857142857,0.045056599969703216
26.17142857142857,0.04403474330290826
26.285714285714285,0.04239894176896218
26.4,0.04010291503513771
26.514285714285712,0.03740834371765793
26.628571428571426,0.03487211345202751
26.742857142857144,0.033191460797685965
26.857142857142858,0.03291972705420608
26.97142857142857,0.03415704887437812
27.085714285714285,0.036411239931021126
27.2,0.03879851142564576
27.314285714285713,0.0404849709757126
27.428571428571427,0.04102936642311938
27.54285714285714,0.04045123433381445
27.657142857142855,0.03915535663214343
27.771428571428572,0.03779225526435397
27.885714285714286,0.03696639760494934
28.0,0.03692568976938271
28.114285714285714,0.03760112640199943
28.228571428571428,0.03896191839648649
28.34285714285714,0.04110753593773567
28.457142857142856,0.04383189577275534
28.57142857142857,0.04624446347605691
28.685714285714283,0.04712994649417324
28.8,0.04584873689607799
28.914285714285715,0.042901739356774084
29.02857142857143,0.03965090356301589
29.142857142857142,0.037532139392162454
29.257142857142856,0.03740397900121062
29.37142857142857,0.03934120103531871
29.485714285714284,0.04279466649109446
29.599999999999998,0.04686731215201072
29.71428571428571,0.0504749387554631
29.82857142857143,0.05242923010196985
29.942857142857143,0.05175365459030029
30.057142857142857,0.04828748736136772
30.17142857142857,0.04304336992774728
30.285714285714285,0.03778826219986453
30.4,0.03407915645958265
30.514285714285712,0.032518653662127577
30.628571428571426,0.03269189551489456
30.74285714285714,0.033635787889765144
30.857142857142858,0.034418701400732325
30.97142857142857,0.0344918811827064
31.085714285714285,0.03370897257868519
31.2,0.0321582269062877
31.314285714285713,0.03002854269195743
31.428571428571427,0.02758774772550731
31.54285714285714,0.025204898908678077
31.657142857142855,0.02334202941265111
31.77142857142857,0.022487286734417487
31.885714285714286,0.023019201337530198
32.0,0.02501429764980899
32.114285714285714,0.028080527673353155
32.22857142857143,0.03137561191923133
32.34285714285714,0.0339156112332254
32.457142857142856,0.03503379967020621
32.57142857142857,0.034642147462233985
32.68571428571428,0.03310075981540545
32.8,0.030907931700569435
32.91428571428571,0.028557369305424147
33.028571428571425,0.026581177261168577
33.14285714285714,0.025499883372101916
33.25714285714285,0.02557059886483995
33.371428571428574,0.026591233185137557
33.48571428571429,0.02804259619625414
33.6,0.029485321931889723
33.714285714285715,0.03083825875968851
33.82857142857143,0.03229106367688678
33.94285714285714,0.03396410784711855
34.05714285714286,0.0356351222393522
34.17142857142857,0.036782446780426796
34.285714285714285,0.03693943523426763
34.4,0.03605652241088689
34.51428571428571,0.034518957487672246
34.628571428571426,0.03282164855864243
34.74285714285714,0.031248882228978446
34.857142857142854,0.02980775444782361
34.97142857142857,0.02835600827373281
35.08571428571428,0.026774335557034484
35.199999999999996,0.025108458197304392
35.31428571428572,0.02363526637571181
35.42857142857143,0.022802461142243158
35.542857142857144,0.023015860816411705
35.65714285714286,0.02432783360036333
35.77142857142857,0.026224709194683594
35.885714285714286,0.027766803714968855
36.0,0.028098167741165213
36.114285714285714,0.02697070984945649
36.22857142857143,0.024867248849422277
36.34285714285714,0.022671683720569113
36.457142857142856,0.02119058752313608
36.57142857142857,0.020823311130159606
36.68571428571428,0.02147439837767495
36.8,0.022690965864476404
36.91428571428571,0.02396085069919531
37.028571428571425,0.025008043997009982
37.14285714285714,0.025874829916029306
37.25714285714285,0.026732970868589535
37.371428571428574,0.027615039409719374
37.48571428571429,0.028330966589843604
37.6,0.028636146715098204
37.714285714285715,0.028461487654262353
37.82857142857143,0.027985877817651293
37.94285714285714,0.027527439788454445
38.05714285714286,0.027381830808629982
38.17142857142857,0.027696346238733717
38.285714285714285,0.028389413244568777
38.4,0.029150963113671942
38.51428571428571,0.029587455088285024
38.628571428571426,0.029472258044650437
38.74285714285714,0.028921618363119093
38.857142857142854,0.028333288294000863
38.97142857142857,0.028114353436705035
39.08571428571428,0.028405384833207564
39.199999999999996,0.029024626549952994
39.31428571428571,0.029704313764478345
39.42857142857143,0.030450033796954594
39.542857142857144,0.03166848100842677
39.65714285714286,0.03381205892419878
39.77142857142857,0.03675132485543586
39.885714285714286,0.039505796577346805
40.0,0.040757750675528566
40.114285714285714,0.03978954491188209
40.22857142857143,0.03698562044904899
40.34285714285714,0.033473038722379854
40.457142857142856,0.03032757825642459
40.57142857142857,0.028043759405023322
40.68571428571428,0.026520540027253414
40.8,0.025357166177256352
40.91428571428571,0.02419206180020559
41.028571428571425,0.022923377404134533
41.14285714285714,0.021725466627641323
41.25714285714285,0.020894089447773698
41.371428571428574,0.0206674433004096
41.48571428571429,0.02111541843551792
41.6,0.022069305367534518
41.714285714285715,0.023112381236986435
41.82857142857143,0.0237500118763501
41.94285714285714,0.023728805157222484
42.05714285714286,0.023216613477309193
42.17142857142857,0.022630093431214273
42.285714285714285,0.022283345056110945
42.4,0.022211418569796547
42.51428571428571,0.022276582529812156
42.628571428571426,0.022358027917987647
42.74285714285714,0.022417467427628814
42.857142857142854,0.022443934404996112
42.97142857142857,0.02241119544307009
43.08571428571428,0.02230286646832557
43.199999999999996,0.02213174628457732
43.31428571428571,0.021902148451004855
43.42857142857143,0.02157809880670289
43.542857142857144,0.021123824402054396
43.65714285714286,0.020584809199093168
43.77142857142857,0.020136217195419984
43.885714285714286,0.020047600924096732
44.0,0.02053921700041381
44.114285714285714,0.021590973666429515
44.22857142857143,0.022876574299380288
44.34285714285714,0.023929363306337405
44.457142857142856,0.024409069100209554
44.57142857142857,0.024241746799820357
44.68571428571428,0.023573451596604834
44.8,0.0226532501417823
44.91428571428571,0.02174319333177955
45.028571428571425,0.02105665016244396
45.14285714285714,0.020705182308142778
45.25714285714285,0.020667970633398546
45.37142857142857,0.02081123341075436
45.48571428571429,0.02095684946677626
45.6,0.020955837686599026
45.714285714285715,0.020727390261698682
45.82857142857143,0.02028893816491962
45.94285714285714,0.019808321895483517
46.05714285714286,0.019605419541517035
46.17142857142857,0.02000731815160413
46.285714285714285,0.021142618729145746
46.4,0.022897292026399854
46.51428571428571,0.025071188734601575
46.628571428571426,0.027484901828872636
46.74285714285714,0.02985782879594655
46.857142857142854,0.031671616590882565
46.97142857142857,0.032342493634443276
47.08571428571428,0.03160891481386202
47.199999999999996,0.02969877057984439
47.31428571428571,0.027103041084570314
47.42857142857143,0.024259828166433958
47.542857142857144,0.02148232154727517
47.65714285714286,0.01909252393720018
47.77142857142857,0.017482059914953108
47.885714285714286,0.016950148942336162
48.0,0.0174588364033797
48.114285714285714,0.018585043522706162
48.22857142857143,0.01978555669008947
48.34285714285714,0.020755996646284428
48.457142857142856,0.02152616526079539
48.57142857142857,0.022212546743175746
48.68571428571428,0.022750653174263957
48.8,0.02294265092511379
48.91428571428571,0.022754144866408164
49.028571428571425,0.022527392632902522
49.14285714285714,0.02301475885543301
49.25714285714285,0.025508545060079726
49.37142857142857,0.03216266224190341
49.48571428571429,0.04576695985089714
49.6,0.06780969742637377
49.714285714285715,0.09520852690815387
49.82857142857143,0.11903377349104388
49.94285714285714,0.12866623527747545
50.05714285714286,0.11941702281492682
50.17142857142857,0.09635028247734423
50.285714285714285,0.0701168952409559
50.4,0.04922856402428608
50.51428571428571,0.03613203626432061
50.628571428571426,0.02889685940326082
50.74285714285714,0.024771968924755566
50.857142857142854,0.022123886974305642
50.97142857142857,0.020423862004615764
51.08571428571428,0.019569926506644714
51.199999999999996,0.019439560684848017
51.31428571428571,0.019789882834825058
51.42857142857142,0.020325691483800902
51.542857142857144,0.020801339988911406
51.65714285714286,0.021086979084105444
51.77142857142857,0.02114992171640815
51.885714285714286,0.020973256144336767
52.0,0.020523164416063076
52.114285714285714,0.01982951308141783
52.22857142857143,0.01908264862674542
52.34285714285714,0.018601834342274266
52.457142857142856,0.018679450665750524
52.57142857142857,0.019440509956234794
52.68571428571428,0.020804393744450922
52.8,0.022511038536139484
52.91428571428571,0.02416972696117227
53.028571428571425,0.025364796925205456
53.14285714285714,0.02582819442171619
53.25714285714285,0.025573206591829236
53.37142857142857,0.024874570198802702
53.48571428571429,0.024112175222656806
53.6,0.02358328925463553
53.714285714285715,0.023372736256000518
53.82857142857143,0.02335671874968224
53.94285714285714,0.02336079069501153
54.05714285714286,0.023329293029056168
54.17142857142857,0.023318316254017576
54.285714285714285,0.023345117219338407
54.4,0.023298335298206737
54.51428571428571,0.022994592381724174
54.628571428571426,0.02230635058689171
54.74285714285714,0.021275980361222104
54.857142857142854,0.020139002386655502
54.97142857142857,0.0192057253810208
55.08571428571428,0.018697028048093572
