Frequency,PSD
6.057142857142857,0.09724371809687218
6.171428571428571,0.09752628637645712
6.285714285714286,0.09805548259286644
6.3999999999999995,0.09876432056799242
6.514285714285714,0.09956521228164103
6.628571428571428,0.10036618508094775
6.742857142857143,0.10109122412912622
6.857142857142857,0.10170048684882774
6.9714285714285715,0.10220428312485895
7.085714285714285,0.10266508987269837
7.2,0.10318503522034081
7.314285714285714,0.10388138958911008
7.428571428571428,0.10485758653020985
7.542857142857143,0.10617983490693873
7.657142857142857,0.10786803322603711
7.771428571428571,0.10990469707338955
7.885714285714285,0.11225886316924395
8.0,0.11491615197829386
8.114285714285714,0.11790364279158316
8.228571428571428,0.12129981037477428
8.342857142857143,0.12522467030564924
8.457142857142857,0.1298114904634043
8.571428571428571,0.13516676382043402
8.685714285714285,0.14132812791001131
8.799999999999999,0.1482302029101565
8.914285714285715,0.15568646509395928
9.028571428571428,0.16339217278434695
9.142857142857142,0.17094969864638337
9.257142857142856,0.1779136856886369
9.371428571428572,0.18384940813515743
9.485714285714286,0.18839409540886615
9.6,0.19130883143079594
9.714285714285714,0.1925092586252956
9.828571428571427,0.192067430551406
9.942857142857143,0.19018420256942864
10.057142857142857,0.18713950132852775
10.17142857142857,0.18323387051114884
10.285714285714285,0.17873651998874182
10.4,0.17385197956614995
10.514285714285714,0.16871063704672284
10.628571428571428,0.16338059797917492
10.742857142857142,0.15789232314554874
10.857142857142858,0.15226526510385807
10.971428571428572,0.14652748369928695
11.085714285714285,0.14072370649281063
11.2,0.1349124504894013
11.314285714285713,0.129156683776539
11.428571428571429,0.12351394226083598
11.542857142857143,0.11803077348374998
11.657142857142857,0.1127436983693522
11.77142857142857,0.10768581789987784
11.885714285714286,0.10289588149623835
12.0,0.09842573071515899
12.114285714285714,0.09434260976762475
12.228571428571428,0.09072451775326702
12.342857142857142,0.08764896766703083
12.457142857142857,0.0851775890139121
12.571428571428571,0.08334042761819432
12.685714285714285,0.08212417215972949
12.799999999999999,0.08146770493298194
12.914285714285715,0.08126647603411999
13.028571428571428,0.08138474277821632
13.142857142857142,0.08167249837380557
13.257142857142856,0.08198276948707642
13.371428571428572,0.08218538798782073
13.485714285714286,0.0821751961186251
13.6,0.08187512046360117
13.714285714285714,0.08123650568941161
13.828571428571427,0.0802396037744816
13.942857142857143,0.07889593252785086
14.057142857142857,0.07725194937987703
14.17142857142857,0.0753912864320208
14.285714285714285,0.07343181183434988
14.4,0.07151463343188688
14.514285714285714,0.0697846536316796
14.628571428571428,0.06836552359163489
14.742857142857142,0.06733459789103888
14.857142857142856,0.06670465828329421
14.971428571428572,0.06641818780647965
15.085714285714285,0.06635700499597262
15.2,0.06636598457996656
15.314285714285713,0.06628568643663278
15.428571428571429,0.06598624653455615
15.542857142857143,0.06539461706501597
15.657142857142857,0.0645091726490784
15.77142857142857,0.06339908445641156
15.885714285714284,0.062189560757134735
16.0,0.06103698284488596
16.114285714285714,0.06009949747889847
16.228571428571428,0.059508709066390525
16.34285714285714,0.05934714435517262
16.457142857142856,0.059634701369191565
16.57142857142857,0.060325787427344554
16.685714285714287,0.06131747253800806
16.8,0.06246766074170758
16.914285714285715,0.06362086024025637
17.02857142857143,0.06463760418514633
17.142857142857142,0.06542222663034365
17.257142857142856,0.06594309590646664
17.37142857142857,0.0662401535383435
17.485714285714284,0.06641698189267942
17.599999999999998,0.06661828799265045
17.714285714285715,0.06699764462385911
17.82857142857143,0.06768322066941869
17.942857142857143,0.06874990755831673
18.057142857142857,0.07020429736260331
18.17142857142857,0.07198498101759489
18.285714285714285,0.07397602786166779
18.4,0.07602796812287038
18.514285714285712,0.07797939685109297
18.628571428571426,0.07967377094064376
18.742857142857144,0.08096931242596743
18.857142857142858,0.0817436215141838
18.97142857142857,0.08189697937738954
19.085714285714285,0.0813583199404942
19.2,0.08009549662932394
19.314285714285713,0.07812790355724034
19.428571428571427,0.07553649733294762
19.54285714285714,0.07246538507119536
19.657142857142855,0.06911101907655415
19.771428571428572,0.06569899982241831
19.885714285714286,0.062452871021731624
20.0,0.05956222873240774
20.114285714285714,0.057157781381741886
20.228571428571428,0.05529870687424866
20.34285714285714,0.05397385960652949
20.457142857142856,0.05311464794234429
20.57142857142857,0.05261499692695543
20.685714285714287,0.05235321225798389
20.8,0.0522114488146649
20.914285714285715,0.0520901014679571
21.02857142857143,0.051916049452337035
21.142857142857142,0.051644906406823246
21.257142857142856,0.051258226968697
21.37142857142857,0.05075714636901406
21.485714285714284,0.05015428574784779
21.599999999999998,0.049465895903482715
21.714285714285715,0.048705999438761687
21.82857142857143,0.04788365765608802
21.942857142857143,0.047003555365754825
22.057142857142857,0.04606915807340395
22.17142857142857,0.04508706760664101
22.285714285714285,0.044071042871959135
22.4,0.04304439014429452
22.514285714285712,0.042039848367420876
22.628571428571426,0.04109652745657721
22.742857142857144,0.04025390201776085
22.857142857142858,0.039543455733847516
22.97142857142857,0.03897939695805247
23.085714285714285,0.03855075926695407
23.2,0.03821771809161468
23.314285714285713,0.03791457803034167
23.428571428571427,0.037560365527674215
23.54285714285714,0.037075583715564096
23.657142857142855,0.03640126650927956
23.771428571428572,0.035515035573823336
23.885714285714286,0.03443916885992626
24.0,0.03323781078897051
24.114285714285714,0.03200370583172267
24.228571428571428,0.030838046440016628
24.34285714285714,0.029829037284446
24.457142857142856,0.029034929178437384
24.57142857142857,0.02847562952082202
24.685714285714283,0.028134238987441006
24.8,0.027966977754981734
24.914285714285715,0.027917839769673658
25.02857142857143,0.027933478825879265
25.142857142857142,0.027974359287551764
25.257142857142856,0.02801977888462462
25.37142857142857,0.028066428002490082
25.485714285714284,0.028122054181480994
25.599999999999998,0.02819701313768242
25.71428571428571,0.028296708808499306
25.82857142857143,0.028417181655039078
25.942857142857143,0.02854474115711799
26.057142857142857,0.028659091125157018
26.17142857142857,0.02873838185981827
26.285714285714285,0.028764329989440583
26.4,0.02872593212050082
26.514285714285712,0.028621047501059545
26.628571428571426,0.028455843266746446
26.742857142857144,0.02824252397035048
26.857142857142858,0.02799589183054877
26.97142857142857,0.027729285440182612
27.085714285714285,0.027450521795210348
27.2,0.027158665665462704
27.314285714285713,0.02684261330365058
27.428571428571427,0.026482348131424603
27.54285714285714,0.02605314540030381
27.657142857142855,0.02553206318279665
27.771428571428572,0.024905108516549975
27.885714285714286,0.024172960612862525
28.0,0.023353380125626932
28.114285714285714,0.022479422781253262
28.228571428571428,0.02159394587050665
28.34285714285714,0.020742093299160373
28.457142857142856,0.01996398397832198
28.57142857142857,0.019289522409205197
28.685714285714283,0.018736288232897056
28.8,0.018310297235437454
28.914285714285715,0.018008547070370584
29.02857142857143,0.017821963301660776
29.142857142857142,0.017737648566121714
29.257142857142856,0.017739973280906467
29.37142857142857,0.01781070851237765
29.485714285714284,0.017928838478695575
29.599999999999998,0.018070798446297227
29.71428571428571,0.018211696088802694
29.82857142857143,0.01832769617043824
29.942857142857143,0.018399300867230153
30.057142857142857,0.018414855086022135
30.17142857142857,0.018373354418861735
30.285714285714285,0.018285624819833625
30.4,0.018173224121495895
30.514285714285712,0.018064947593876182
30.628571428571426,0.01799146556392341
30.74285714285714,0.017979180003561454
30.857142857142858,0.018044670950884092
30.97142857142857,0.01819101521599246
31.085714285714285,0.01840682962969297
31.2,0.018668256819559786
31.314285714285713,0.01894345533390598
31.428571428571427,0.01919863728951243
31.54285714285714,0.01940441200428196
31.657142857142855,0.019541171996409645
31.77142857142857,0.019602476379996254
31.885714285714286,0.019595792330297034
32.0,0.01954047249721237
32.114285714285714,0.019463383104280862
32.22857142857143,0.019393055402085645
32.34285714285714,0.01935352487490501
32.457142857142856,0.01935909197092273
32.57142857142857,0.019411071714900658
32.68571428571428,0.019497225814491016
32.8,0.019594051471906494
32.91428571428571,0.01967152245844868
33.028571428571425,0.01969934517575464
33.14285714285714,0.01965341978280723
33.25714285714285,0.019521087050464722
33.371428571428574,0.019303954963935263
33.48571428571429,0.019017619197095565
33.6,0.01868831300345255
33.714285714285715,0.018347267732426023
33.82857142857143,0.018024134570667632
33.94285714285714,0.01774104950292181
34.05714285714286,0.01750874655211935
34.17142857142857,0.017325583785924924
34.285714285714285,0.017179589690806737
34.4,0.017052871609718544
34.51428571428571,0.016927161002675113
34.628571428571426,0.01678905120097727
34.74285714285714,0.016633657411116828
34.857142857142854,0.016465923049498076
34.97142857142857,0.016299444099114917
35.08571428571428,0.016153283170573542
35.199999999999996,0.01604763765712767
35.31428571428572,0.015999349906764486
35.42857142857143,0.016018145612894455
35.542857142857144,0.016104263636935637
35.65714285714286,0.01624788851829673
35.77142857142857,0.016430545324667555
35.885714285714286,0.016628335268670434
36.0,0.01681654561198766
36.114285714285714,0.016974786163668366
36.22857142857143,0.01709150065615804
36.34285714285714,0.017166633615514133
36.457142857142856,0.017211521089157918
36.57142857142857,0.01724571508636514
36.68571428571428,0.017291296655254453
36.8,0.01736602438074946
36.91428571428571,0.017477132339565056
37.028571428571425,0.01761754993064847
37.14285714285714,0.017765740207275203
37.25714285714285,0.017889393970559372
37.371428571428574,0.017952156784937542
37.48571428571429,0.017921729018860008
37.6,0.01777732021454754
37.714285714285715,0.0175146568596588
37.82857142857143,0.017147446538516613
37.94285714285714,0.016705151297119136
38.05714285714286,0.016227822252603732
38.17142857142857,0.01575934960033332
38.285714285714285,0.015340666029704166
38.4,0.015004228602646361
38.51428571428571,0.01477062201502249
38.628571428571426,0.014647545203211196
38.74285714285714,0.014630917976407821
38.857142857142854,0.014707479685953678
38.97142857142857,0.014858095858420269
39.08571428571428,0.015061039643023445
39.199999999999996,0.015294731179325291
39.31428571428571,0.015539724650306942
39.42857142857143,0.015780031070763707
39.542857142857144,0.01600405260277472
39.65714285714286,0.016205409460992
39.77142857142857,0.016383757876754192
39.885714285714286,0.016545406621295847
40.0,0.01670328592581966
40.114285714285714,0.016875759607406636
40.22857142857143,0.017083982998448266
40.34285714285714,0.01734795531839104
40.457142857142856,0.017681931873799104
40.57142857142857,0.018090230117976818
40.68571428571428,0.018564513772280716
40.8,0.019083333364039334
40.91428571428571,0.019614151833191075
41.028571428571425,0.02011749176879657
41.14285714285714,0.02055239621702754
41.25714285714285,0.020882195033887427
41.371428571428574,0.02107960092618013
41.48571428571429,0.021130347609245738
41.6,0.021034853827694523
41.714285714285715,0.020807716424023258
41.82857142857143,0.020475189718629164
41.94285714285714,0.020071161338710453
42.05714285714286,0.019632405792720305
42.17142857142857,0.019193990512369988
42.285714285714285,0.018785577341158786
42.4,0.018429053783016666
42.51428571428571,0.018137572311144698
42.628571428571426,0.017915810290963254
42.74285714285714,0.017761152132570762
42.857142857142854,0.017665501836179986
42.97142857142857,0.017617463154873374
43.08571428571428,0.017604605045169645
43.199999999999996,0.01761547021154374
43.31428571428571,0.01764096122162751
43.42857142857143,0.017674831999336872
43.542857142857144,0.017713238117493344
43.65714285714286,0.017753587321685232
43.77142857142857,0.017793163462264307
43.885714285714286,0.017828069850343357
44.0,0.017852915701319923
44.114285714285714,0.01786139376795645
44.22857142857143,0.017847566722623016
44.34285714285714,0.017807411843297278
44.457142857142856,0.017740067266761625
44.57142857142857,0.017648325423194427
44.68571428571428,0.01753819960806628
44.8,0.017417737432780613
44.91428571428571,0.017295516615864752
45.028571428571425,0.01717931084950203
45.14285714285714,0.017075237358067694
45.25714285714285,0.016987402924047684
45.37142857142857,0.01691783425390161
45.48571428571429,0.016866455008122158
45.6,0.016831060933165637
45.714285714285715,0.016807499411172086
45.82857142857143,0.016790371232269757
45.94285714285714,0.016774410310063603
46.05714285714286,0.016756309816150325
46.17142857142857,0.01673636564961071
46.285714285714285,0.016719159160138386
46.4,0.016712744682572906
46.51428571428571,0.016726375981257077
46.628571428571426,0.016767444473159636
46.74285714285714,0.016838701907326323
46.857142857142854,0.016936800171005524
46.97142857142857,0.017052710615357985
47.08571428571428,0.017173893825656008
47.199999999999996,0.017287476028050235
47.31428571428571,0.01738339178898022
47.42857142857143,0.017456556165205014
47.542857142857144,0.017507540466120873
47.65714285714286,0.017541746213973076
47.77142857142857,0.01756750383072638
47.885714285714286,0.017593752309289373
48.0,0.017627977988973358
48.114285714285714,0.017674970312793057
48.22857142857143,0.017736762828718215
48.34285714285714,0.017813900255964493
48.457142857142856,0.017907894636805477
48.57142857142857,0.018024389124914733
48.68571428571428,0.018176170362032965
48.8,0.018384871611535777
48.91428571428571,0.01868015848707445
49.028571428571425,0.019095546581334482
49.14285714285714,0.019660824226483513
49.25714285714285,0.020392225179929155
49.37142857142857,0.021282692892162915
49.48571428571429,0.022295330717562217
49.6,0.023362976825200905
49.714285714285715,0.02439554112305949
49.82857142857143,0.02529448738539525
49.94285714285714,0.02597132013697975
50.05714285714286,0.02636513047670616
50.17142857142857,0.02645404783420497
50.285714285714285,0.0262571431579001
50.4,0.025826415326100707
50.51428571428571,0.025231774446845056
50.628571428571426,0.024544075394165487
50.74285714285714,0.023821411565855617
50.857142857142854,0.023102110046096382
50.97142857142857,0.022405067663818067
51.08571428571428,0.021735480327970246
51.199999999999996,0.021092635101581034
51.31428571428571,0.020476575053872074
51.42857142857142,0.019891730732629346
51.542857142857144,0.019347263186355143
51.65714285714286,0.018855133855428675
51.77142857142857,0.018427402241186448
51.885714285714286,0.01807398128282616
52.0,0.01780139265856856
52.114285714285714,0.017612387857216104
52.22857142857143,0.017505946010163618
52.34285714285714,0.017477209724999162
52.457142857142856,0.017517244494464332
52.57142857142857,0.017612864982437363
52.68571428571428,0.01774694949241679
52.8,0.01789957787872718
52.91428571428571,0.01805004247947106
53.028571428571425,0.018179448982192783
53.14285714285714,0.01827339020162797
53.25714285714285,0.01832411035415614
53.37142857142857,0.018331666918181472
53.48571428571429,0.0183037868144605
53.6,0.018254355386148193
53.714285714285715,0.018200743698780546
53.82857142857143,0.01816044458827371
53.94285714285714,0.018147695512693032
54.05714285714286,0.01817083648167184
54.17142857142857,0.018231019054190643
54.285714285714285,0.018322548120560132
54.4,0.01843469032065133
54.51428571428571,0.018554371435851896
54.628571428571426,0.018668958657899727
54.74285714285714,0.01876836491886935
54.857142857142854,0.018846003488332305
54.97142857142857,0.01889855214349037
55.08571428571428,0.018924899998134237
