Frequency,PSD
6.057142857142857,0.04857934365495548
6.171428571428571,0.05199635145445447
6.285714285714286,0.05847037135682631
6.3999999999999995,0.06727252193236515
6.514285714285714,0.07704594450706168
6.628571428571428,0.08580905160949867
6.742857142857143,0.09187799207045808
6.857142857142857,0.09491831197460601
6.9714285714285715,0.09580708161956066
7.085714285714285,0.09581046407291147
7.2,0.09645568910555875
7.314285714285714,0.09960401678282202
7.428571428571428,0.10643695745482809
7.542857142857143,0.11614366677919459
7.657142857142857,0.12606183957841574
7.771428571428571,0.13316925651377418
7.885714285714285,0.13556688203019268
8.0,0.13331082899096258
8.114285714285714,0.12838602708533495
8.228571428571428,0.12354891585256675
8.342857142857143,0.12072291387600685
8.457142857142857,0.12053947794912054
8.571428571428571,0.12357016429083532
8.685714285714285,0.13170545521996826
8.799999999999999,0.14785196996793679
8.914285714285715,0.17452379394999296
9.028571428571428,0.21351080740023398
9.142857142857142,0.2666669685162562
9.257142857142856,0.33546529000027403
9.371428571428572,0.41854472224329803
9.485714285714286,0.5096998874191021
9.6,0.5996789131466758
9.714285714285714,0.6827523063109063
9.828571428571427,0.7631262160861323
9.942857142857143,0.8525184331885806
10.057142857142857,0.9586994690360879
10.17142857142857,1.0778720436033393
10.285714285714285,1.1984880835231668
10.4,1.3056887205922416
10.514285714285714,1.3777168160389648
10.628571428571428,1.3874161356588843
10.742857142857142,1.320871779540884
10.857142857142858,1.1955811216953631
10.971428571428572,1.0515828025083698
11.085714285714285,0.921483530175023
11.2,0.8125928257792767
11.314285714285713,0.7164837603851291
11.428571428571429,0.6269640939337091
11.542857142857143,0.544699820100522
11.657142857142857,0.4711058531353363
11.77142857142857,0.40587405545952215
11.885714285714286,0.35023726611895617
12.0,0.30722984822326305
12.114285714285714,0.27681312317161805
12.228571428571428,0.25330533572443553
12.342857142857142,0.2294960824644946
12.457142857142857,0.20264269387113598
12.571428571428571,0.17575407701410756
12.685714285714285,0.1536878913302353
12.799999999999999,0.13875834532116796
12.914285714285715,0.12985873361881115
13.028571428571428,0.12479406176135413
13.142857142857142,0.12238074266456248
13.257142857142856,0.12205149248182083
13.371428571428572,0.12244929922238969
13.485714285714286,0.12152504408394951
13.6,0.1179044003640272
13.714285714285714,0.11150755975404467
13.828571428571427,0.10293400412890066
13.942857142857143,0.09284637967144105
14.057142857142857,0.08204313203649326
14.17142857142857,0.07165550296541606
14.285714285714285,0.06289080393554691
14.4,0.05646881842504319
14.514285714285714,0.05230952438213539
14.628571428571428,0.04988989287473627
14.742857142857142,0.04893700454454132
14.857142857142856,0.04957431219819234
14.971428571428572,0.05172283591603509
15.085714285714285,0.05452667792634359
15.2,0.05646648813981456
15.314285714285713,0.05617243028558995
15.428571428571429,0.053417200186986584
15.542857142857143,0.0493734558993669
15.657142857142857,0.04567855818449314
15.77142857142857,0.04320402390324388
15.885714285714284,0.0418514641560127
16.0,0.04135288917867671
16.114285714285714,0.04182315773044432
16.228571428571428,0.043421774059657206
16.34285714285714,0.04582265562649407
16.457142857142856,0.0482667104541685
16.57142857142857,0.05006110773622224
16.685714285714287,0.05100168851033568
16.8,0.05141140068025781
16.914285714285715,0.051724255596362075
17.02857142857143,0.051973470233206254
17.142857142857142,0.05184957576929371
17.257142857142856,0.05128926837417294
17.37142857142857,0.05064868028157186
17.485714285714284,0.050105555998666326
17.599999999999998,0.04921623644528041
17.714285714285715,0.04732002199229577
17.82857142857143,0.0442147194070949
17.942857142857143,0.04036220581722638
18.057142857142857,0.03665608214655455
18.17142857142857,0.03401396309041391
18.285714285714285,0.03293966773810537
18.4,0.03332711769750108
18.514285714285712,0.034620324091097485
18.628571428571426,0.03605311919556715
18.742857142857144,0.036828368800860746
18.857142857142858,0.036416445089472664
18.97142857142857,0.03492434598547186
19.085714285714285,0.033125624972397065
19.2,0.03193747989505289
19.314285714285713,0.031719312068786205
19.428571428571427,0.03210231097453611
19.54285714285714,0.03264122661716418
19.657142857142855,0.03359582398447782
19.771428571428572,0.03577456074246444
19.885714285714286,0.03943949641746973
20.0,0.04360419340348073
20.114285714285714,0.04672451432486023
20.228571428571428,0.04801860029540511
20.34285714285714,0.047854393218691435
20.457142857142856,0.04697040251700278
20.57142857142857,0.045782020204675866
20.685714285714287,0.0445607271374772
20.8,0.043852021071328455
20.914285714285715,0.04427442635364681
21.02857142857143,0.04583278578091421
21.142857142857142,0.04760903156330705
21.257142857142856,0.04836088225994056
21.37142857142857,0.04755475603059619
21.485714285714284,0.04577011146097699
21.599999999999998,0.044001840120024366
21.714285714285715,0.04260801719411067
21.82857142857143,0.0410870668664734
21.942857142857143,0.03887523282294559
22.057142857142857,0.03609514914251556
22.17142857142857,0.033373141889435326
22.285714285714285,0.03115929287003616
22.4,0.029445293354871584
22.514285714285712,0.027990359916170906
22.628571428571426,0.02661644557437741
22.742857142857144,0.025326154473751167
22.857142857142858,0.024211159603027978
22.97142857142857,0.02322693890439715
23.085714285714285,0.022104566066659965
23.2,0.02059856300834873
23.314285714285713,0.018816931873342414
23.428571428571427,0.0171919066600306
23.54285714285714,0.016112576838250414
23.657142857142855,0.0156796023763172
23.771428571428572,0.015765823492339043
23.885714285714286,0.016120735254522008
24.0,0.016414094631263223
24.114285714285714,0.016411015796039763
24.228571428571428,0.016221798020287906
24.34285714285714,0.01624855381905746
24.457142857142856,0.016748162969464363
24.57142857142857,0.01749336461863323
24.685714285714283,0.018000579152112266
24.8,0.018091328842725168
24.914285714285715,0.01806608019675013
25.02857142857143,0.018272253873268314
25.142857142857142,0.018664401402042025
25.257142857142856,0.018877415788681268
25.37142857142857,0.01861177367185493
25.485714285714284,0.017877739584222306
25.599999999999998,0.016953305932100024
25.71428571428571,0.01616111933705195
25.82857142857143,0.015654295692674382
25.942857142857143,0.015401060977112729
26.057142857142857,0.01534842008374493
26.17142857142857,0.015532749378514373
26.285714285714285,0.016017612143284368
26.4,0.016755256984169825
26.514285714285712,0.01749448944022603
26.628571428571426,0.01782681715034509
26.742857142857144,0.017421851822431576
26.857142857142858,0.01630749839802104
26.97142857142857,0.014907365564823673
27.085714285714285,0.013764917007615658
27.2,0.013222983555911807
27.314285714285713,0.013327839224886177
27.428571428571427,0.013930356545311072
27.54285714285714,0.01479776252769547
27.657142857142855,0.015674471439750585
27.771428571428572,0.016342945411129236
27.885714285714286,0.016672223168897573
28.0,0.016609647200425678
28.114285714285714,0.016162526590721846
28.228571428571428,0.015441422484449713
28.34285714285714,0.01471008295153451
28.457142857142856,0.014291488034795467
28.57142857142857,0.014328723057138056
28.685714285714283,0.014649626754351656
28.8,0.014916845036088866
28.914285714285715,0.014902649497997605
29.02857142857143,0.014629237418394732
29.142857142857142,0.014323934867241216
29.257142857142856,0.014250854840457084
29.37142857142857,0.014480122807852196
29.485714285714284,0.014776091940996073
29.599999999999998,0.01480736307043075
29.71428571428571,0.014527086353600322
29.82857142857143,0.014265778668197495
29.942857142857143,0.014390487069448716
30.057142857142857,0.014960933689466657
30.17142857142857,0.015793064225769232
30.285714285714285,0.01674539745185981
30.4,0.01778620889459227
30.514285714285712,0.018819692770274427
30.628571428571426,0.01963443790304025
30.74285714285714,0.02010377254370639
30.857142857142858,0.020320117408812982
30.97142857142857,0.02041897138169181
31.085714285714285,0.02034033774257346
31.2,0.019883365494433192
31.314285714285713,0.018981539031938777
31.428571428571427,0.017864952498219924
31.54285714285714,0.016980278015482478
31.657142857142855,0.016774735100601443
31.77142857142857,0.01745898528567886
31.885714285714286,0.01883582894549756
32.0,0.020328925288723498
32.114285714285714,0.02129809989348907
32.22857142857143,0.02146899232601916
32.34285714285714,0.021091285102758407
32.457142857142856,0.02064591389050215
32.57142857142857,0.020393577647634057
32.68571428571428,0.02020169718534517
32.8,0.01976386253790088
32.91428571428571,0.01897175956821762
33.028571428571425,0.01809588483525198
33.14285714285714,0.017573948180609426
33.25714285714285,0.01757686194787198
33.371428571428574,0.017829400189795886
33.48571428571429,0.017911358052127936
33.6,0.017673130032276246
33.714285714285715,0.017320282710411986
33.82857142857143,0.017204717048985352
33.94285714285714,0.017585800672406216
34.05714285714286,0.018446669588477366
34.17142857142857,0.01943804389363952
34.285714285714285,0.0201088152533087
34.4,0.020295262239692878
34.51428571428571,0.02022299410239443
34.628571428571426,0.020185838999069727
34.74285714285714,0.02023246666505944
34.857142857142854,0.02022836451426924
34.97142857142857,0.020103788508026632
35.08571428571428,0.01993777536355067
35.199999999999996,0.019877298823248072
35.31428571428572,0.020066197474827872
35.42857142857143,0.02057031977608289
35.542857142857144,0.021236419791894764
35.65714285714286,0.02165527417131325
35.77142857142857,0.021398980413124838
35.885714285714286,0.020341578845618796
36.0,0.01875411201814075
36.114285714285714,0.017150147784760247
36.22857142857143,0.016015691656299014
36.34285714285714,0.015527856537089785
36.457142857142856,0.01545755293015285
36.57142857142857,0.015412344946903859
36.68571428571428,0.015216522893339786
36.8,0.015049362925615307
36.91428571428571,0.01523094444352566
37.028571428571425,0.015880911963799958
37.14285714285714,0.01676609142190321
37.25714285714285,0.017459953665334833
37.371428571428574,0.017640033588382033
37.48571428571429,0.01727289425378231
37.6,0.016591063837638618
37.714285714285715,0.015900309247090058
37.82857142857143,0.015358370709485545
37.94285714285714,0.014935851924453654
38.05714285714286,0.01457887965837244
38.17142857142857,0.014303493976234932
38.285714285714285,0.014081186180202359
38.4,0.013763591961729611
38.51428571428571,0.013249415492305815
38.628571428571426,0.012672788666710283
38.74285714285714,0.012311274054120894
38.857142857142854,0.012304418796098476
38.97142857142857,0.012526216913306777
39.08571428571428,0.01273097561517806
39.199999999999996,0.012770786024235037
39.31428571428571,0.012675747362808621
39.42857142857143,0.012587710900727266
39.542857142857144,0.012653549105925845
39.65714285714286,0.012953467468905836
39.77142857142857,0.013466384223898885
39.885714285714286,0.014053882531133568
40.0,0.014486180423675471
40.114285714285714,0.014552177025282338
40.22857142857143,0.014215340355409707
40.34285714285714,0.01368273096783917
40.457142857142856,0.013305357830444219
40.57142857142857,0.013372355124518542
40.68571428571428,0.013936924763601925
40.8,0.014799546161907397
40.91428571428571,0.015645831731182915
41.028571428571425,0.01616974861519058
41.14285714285714,0.016121911376008227
41.25714285714285,0.015446862965369741
41.371428571428574,0.014471433646901526
41.48571428571429,0.013799625396893812
41.6,0.013869676971104338
41.714285714285715,0.014633102334990263
41.82857142857143,0.015688419167690922
41.94285714285714,0.016651336017719155
42.05714285714286,0.017344918377437697
42.17142857142857,0.01770205206544662
42.285714285714285,0.017618701587021807
42.4,0.017002272170568024
42.51428571428571,0.01597792130565686
42.628571428571426,0.014971640185024775
42.74285714285714,0.01446859258944195
42.857142857142854,0.014606039130314425
42.97142857142857,0.015018486814086528
43.08571428571428,0.015161155754314898
43.199999999999996,0.014825152363627915
43.31428571428571,0.014315203053445778
43.42857142857143,0.01411978873826767
43.542857142857144,0.01443506433965975
43.65714285714286,0.015010530841871157
43.77142857142857,0.015413034045136251
43.885714285714286,0.01538393103283493
44.0,0.014939942684532788
44.114285714285714,0.014230317684290087
44.22857142857143,0.013413442211096518
44.34285714285714,0.012666995721130149
44.457142857142856,0.012206597498955217
44.57142857142857,0.012196202478185982
44.68571428571428,0.012614366209435242
44.8,0.013248771510013899
44.91428571428571,0.013875180956408373
45.028571428571425,0.014426140993696896
45.14285714285714,0.014918720504273003
45.25714285714285,0.01523492480111565
45.37142857142857,0.015104703846017392
45.48571428571429,0.014378813371294066
45.6,0.013231398723063458
45.714285714285715,0.012012795847845363
45.82857142857143,0.010956677903016604
45.94285714285714,0.01007350236280201
46.05714285714286,0.009265171920866462
46.17142857142857,0.008497913353817494
46.285714285714285,0.007897621797623232
46.4,0.007706426547592
46.51428571428571,0.008123741676577579
46.628571428571426,0.009132419748908063
46.74285714285714,0.010435093025635011
46.857142857142854,0.011577744819718681
46.97142857142857,0.01218698436779791
47.08571428571428,0.01212459737638347
47.199999999999996,0.011470889576515618
47.31428571428571,0.010442378935770259
47.42857142857143,0.009349487031576363
47.542857142857144,0.00856393217956481
47.65714285714286,0.00840689113117752
47.77142857142857,0.008961120820223096
47.885714285714286,0.00996318643263152
48.0,0.01093237166448452
48.114285714285714,0.011469882719786606
48.22857142857143,0.011470312806015206
48.34285714285714,0.01108084195005389
48.457142857142856,0.010516961580346644
48.57142857142857,0.009951061537666717
48.68571428571428,0.009517680730644896
48.8,0.00931740976903779
48.91428571428571,0.009364010815808012
49.028571428571425,0.009545632897115611
49.14285714285714,0.009681663258302897
49.25714285714285,0.009668509962579461
49.37142857142857,0.009614763238053102
49.48571428571429,0.009865968716301703
49.6,0.010897746987153718
49.714285714285715,0.013073809029860944
49.82857142857143,0.016256213314088278
49.94285714285714,0.01949357140097973
50.05714285714286,0.021329871744239292
50.17142857142857,0.020843499960130008
50.285714285714285,0.018457380153865093
50.4,0.015533144619440945
50.51428571428571,0.0131981361273576
50.628571428571426,0.011697751536348729
50.74285714285714,0.010696799684439207
50.857142857142854,0.00987658099634226
50.97142857142857,0.009194648342249659
51.08571428571428,0.008762986840293752
51.199999999999996,0.00862352342464391
51.31428571428571,0.008664099637417063
51.42857142857142,0.008718387551919464
51.542857142857144,0.008707483534810326
51.65714285714286,0.00867184674257698
51.77142857142857,0.008690347071676516
51.885714285714286,0.008791123406761574
52.0,0.008919473572227625
52.114285714285714,0.008949035878969468
52.22857142857143,0.008738539210940957
52.34285714285714,0.008259509964951867
52.457142857142856,0.007710190957942724
52.57142857142857,0.007451997007827878
52.68571428571428,0.007761861944284833
52.8,0.008607922803252618
52.91428571428571,0.009661521730363677
53.028571428571425,0.0105537823304435
53.14285714285714,0.011134855412568458
53.25714285714285,0.011469267899981471
53.37142857142857,0.011624012868878637
53.48571428571429,0.011574918907949759
53.6,0.011348840988002968
53.714285714285715,0.011143426573382416
53.82857142857143,0.011195264878075657
53.94285714285714,0.011536736987444247
54.05714285714286,0.011951246584779529
54.17142857142857,0.012185812076981464
54.285714285714285,0.012161737878201118
54.4,0.011959971837805694
54.51428571428571,0.01166582733517933
54.628571428571426,0.011290889878360154
54.74285714285714,0.01082151584571466
54.857142857142854,0.010291277081100675
54.97142857142857,0.009805612577930854
55.08571428571428,0.009509167910719797
