Frequency,PSD
6.057142857142857,0.059128803801352416
6.171428571428571,0.05880349027654295
6.285714285714286,0.058202725841175966
6.3999999999999995,0.05741823580512489
6.514285714285714,0.056568452542597354
6.628571428571428,0.055777987590082206
6.742857142857143,0.05515462190673259
6.857142857142857,0.05476784853107776
6.9714285714285715,0.054633665416861155
7.085714285714285,0.05470975867670909
7.2,0.05490305138894437
7.314285714285714,0.05508834367753142
7.428571428571428,0.055133796718390825
7.542857142857143,0.05492768038755285
7.657142857142857,0.05440147453601322
7.771428571428571,0.053546151325478956
7.885714285714285,0.05241979997537429
8.0,0.05114494794228503
8.114285714285714,0.04989368771908739
8.228571428571428,0.048859668543019555
8.342857142857143,0.04821931380397096
8.457142857142857,0.04808972697785212
8.571428571428571,0.0484952794928788
8.685714285714285,0.04935578057782701
8.799999999999999,0.050504416573848326
8.914285714285715,0.05173379083975026
9.028571428571428,0.05285672369576165
9.142857142857142,0.05376018685798938
9.257142857142856,0.05443069762237539
9.371428571428572,0.054939454349300365
9.485714285714286,0.0553923329812958
9.6,0.05586614973988387
9.714285714285714,0.056359967180420925
9.828571428571427,0.05678409896422058
9.942857142857143,0.05699221856158747
10.057142857142857,0.05684214554882451
10.17142857142857,0.05625851861677417
10.285714285714285,0.0552714182860739
10.4,0.054017409115214715
10.514285714285714,0.052705937701033656
10.628571428571428,0.05156622216212676
10.742857142857142,0.05079331459078089
10.857142857142858,0.05050791640665761
10.971428571428572,0.05073701578102369
11.085714285714285,0.05141553768191725
11.2,0.052404791497328074
11.314285714285713,0.053521478522640234
11.428571428571429,0.05457070809291143
11.542857142857143,0.055377411560999554
11.657142857142857,0.05581230643702916
11.77142857142857,0.05581035301820401
11.885714285714286,0.055380571635862026
12.0,0.05460595647309236
12.114285714285714,0.053631925546974775
12.228571428571428,0.052642631363086646
12.342857142857142,0.05182710173969489
12.457142857142857,0.0513407248037723
12.571428571428571,0.051270282235235394
12.685714285714285,0.05161119027103621
12.799999999999999,0.05226362470431977
12.914285714285715,0.05305044575213886
13.028571428571428,0.05375498178162824
13.142857142857142,0.05417124567642817
13.257142857142856,0.0541540410236757
13.371428571428572,0.053653882973534114
13.485714285714286,0.05272438998090657
13.6,0.05149868072393436
13.714285714285714,0.05014347839917213
13.828571428571427,0.04880908660989522
13.942857142857143,0.04759452507284277
14.057142857142857,0.04653871132522782
14.17142857142857,0.04563526711236964
14.285714285714285,0.044857976281959366
14.4,0.044181780157890586
14.514285714285714,0.04359051827676048
14.628571428571428,0.043072301200689875
14.742857142857142,0.04261010781800121
14.857142857142856,0.04217568568439318
14.971428571428572,0.04173051132707925
15.085714285714285,0.04123258873386596
15.2,0.040645612889512524
15.314285714285713,0.039947861900521645
15.428571428571429,0.03913993195856506
15.542857142857143,0.038250794109874635
15.657142857142857,0.037340305833718654
15.77142857142857,0.03649500695723107
15.885714285714284,0.035814851905613905
16.0,0.035391949058839946
16.114285714285714,0.035286732772667216
16.228571428571428,0.03550967254216413
16.34285714285714,0.03601584787675689
16.457142857142856,0.036715582973243746
16.57142857142857,0.03749858859978653
16.685714285714287,0.03826405511563029
16.8,0.03894677331551448
16.914285714285715,0.0395304370144403
17.02857142857143,0.040043407722230584
17.142857142857142,0.04053805433221646
17.257142857142856,0.041060508419493685
17.37142857142857,0.04162154034572398
17.485714285714284,0.04217993822589788
17.599999999999998,0.04264659767483477
17.714285714285715,0.042910773451769545
17.82857142857143,0.042881212468882345
17.942857142857143,0.0425272976804629
18.057142857142857,0.04190273689577687
18.17142857142857,0.041139365285817124
18.285714285714285,0.040410512427205295
18.4,0.03987722848682845
18.514285714285712,0.039639479509779196
18.628571428571426,0.039713038446821815
18.742857142857144,0.04004122729298948
18.857142857142858,0.04053447774747419
18.97142857142857,0.04111798479624129
19.085714285714285,0.041764700420260446
19.2,0.04249863691135294
19.314285714285713,0.04336776653784344
19.428571428571427,0.04439982118448105
19.54285714285714,0.045561822221850026
19.657142857142855,0.04674235994076224
19.771428571428572,0.04776585318055569
19.885714285714286,0.04843485426469417
20.0,0.04858555990755209
20.114285714285714,0.04813725121777696
20.228571428571428,0.04711951786126119
20.34285714285714,0.045669675453197396
20.457142857142856,0.044002733220161384
20.57142857142857,0.04236379255887389
20.685714285714287,0.040975908088617355
20.8,0.03999553911021046
20.914285714285715,0.0394844490680888
21.02857142857143,0.039402909653327614
21.142857142857142,0.03962500479131266
21.257142857142856,0.03997258727326193
21.37142857142857,0.04026007186920797
21.485714285714284,0.040338788193629856
21.599999999999998,0.040128873712526665
21.714285714285715,0.03963001284728063
21.82857142857143,0.03890926012279073
21.942857142857143,0.03807212842211875
22.057142857142857,0.037228528503875404
22.17142857142857,0.03646552481947506
22.285714285714285,0.03583429534632984
22.4,0.035351721635916426
22.514285714285712,0.03501120965725978
22.628571428571426,0.03479514437182529
22.742857142857144,0.03468313372313343
22.857142857142858,0.034654284541036154
22.97142857142857,0.034685793948981906
23.085714285714285,0.03475222714327391
23.2,0.034829226087155316
23.314285714285713,0.0349025057158348
23.428571428571427,0.03497921525566877
23.54285714285714,0.03509588801585749
23.657142857142855,0.035316890759363576
23.771428571428572,0.03572018433113932
23.885714285714286,0.03637249939060354
24.0,0.03730148224033324
24.114285714285714,0.03847523448396834
24.228571428571428,0.0397981263253082
24.34285714285714,0.041126064393509285
24.457142857142856,0.04229700968056999
24.57142857142857,0.04316693602478091
24.685714285714283,0.043640114811428134
24.8,0.043685746768375625
24.914285714285715,0.04333839146493794
25.02857142857143,0.04268450998153102
25.142857142857142,0.04184002144055118
25.257142857142856,0.040924260919049577
25.37142857142857,0.04003539719832784
25.485714285714284,0.03923212463992423
25.599999999999998,0.038525980690026364
25.71428571428571,0.037886933744478865
25.82857142857143,0.03726143052979515
25.942857142857143,0.036597757910959025
26.057142857142857,0.0358703394678198
26.17142857142857,0.035094356140312775
26.285714285714285,0.03432543600807434
26.4,0.03364486797624911
26.514285714285712,0.03313634803857423
26.628571428571426,0.03286313911958295
26.742857142857144,0.03285347553580096
26.857142857142858,0.03309775734326643
26.97142857142857,0.03355579788447139
27.085714285714285,0.03416871309174472
27.2,0.034869594924086686
27.314285714285713,0.03558975046828909
27.428571428571427,0.036261255350591166
27.54285714285714,0.03681945848187618
27.657142857142855,0.037209130734839724
27.771428571428572,0.03739508299825924
27.885714285714286,0.03737401664951766
28.0,0.03718172924900898
28.114285714285714,0.03689048476766658
28.228571428571428,0.03659526364730126
28.34285714285714,0.03639257657601125
28.457142857142856,0.03635872341628686
28.57142857142857,0.03653415962350369
28.685714285714283,0.03691753962166541
28.8,0.037469186358939366
28.914285714285715,0.03812127925591365
29.02857142857143,0.038791588476155776
29.142857142857142,0.03939818492870628
29.257142857142856,0.03987289357294977
29.37142857142857,0.040170928595464436
29.485714285714284,0.04027401746706735
29.599999999999998,0.04018561046200159
29.71428571428571,0.03991972219868513
29.82857142857143,0.03948823405942453
29.942857142857143,0.0388929530032804
30.057142857142857,0.03812696297499373
30.17142857142857,0.037185326526580915
30.285714285714285,0.03608030002294645
30.4,0.03485363728596995
30.514285714285712,0.03357971913290599
30.628571428571426,0.032357457293709285
30.74285714285714,0.031293815263063636
30.857142857142858,0.030484807719246915
30.97142857142857,0.029999725791794617
31.085714285714285,0.029871736408389922
31.2,0.030094882035179578
31.314285714285713,0.030625767792130686
31.428571428571427,0.03138847561702812
31.54285714285714,0.03228252766059122
31.657142857142855,0.0331943829663041
31.77142857142857,0.034012043810974404
31.885714285714286,0.03464043055839438
32.0,0.03501386815000102
32.114285714285714,0.035102602989022035
32.22857142857143,0.034912567275997834
32.34285714285714,0.03448009456761391
32.457142857142856,0.03386432173164549
32.57142857142857,0.03313916646787281
32.68571428571428,0.032385109331464414
32.8,0.03168010048936787
32.91428571428571,0.03108950299049734
33.028571428571425,0.030656488557734736
33.14285714285714,0.030395424805509413
33.25714285714285,0.030290637479203325
33.371428571428574,0.030301583209226456
33.48571428571429,0.030373680221670068
33.6,0.030452512924064756
33.714285714285715,0.030498124680015073
33.82857142857143,0.03049572225364786
33.94285714285714,0.030459585436910012
34.05714285714286,0.030428636201710272
34.17142857142857,0.030454838831785493
34.285714285714285,0.03058839264651897
34.4,0.030865061243532402
34.51428571428571,0.03129995078535934
34.628571428571426,0.031888909141669974
34.74285714285714,0.03261506151229484
34.857142857142854,0.03345579206611034
34.97142857142857,0.03438589160304119
35.08571428571428,0.0353753358767053
35.199999999999996,0.03638371895306246
35.31428571428572,0.037355833170016076
35.42857142857143,0.03822293066143691
35.542857142857144,0.038911692411928704
35.65714285714286,0.0393590119451982
35.77142857142857,0.03952729681145204
35.885714285714286,0.03941392588088081
36.0,0.03905054728920322
36.114285714285714,0.03849224026323179
36.22857142857143,0.03780106265452046
36.34285714285714,0.03703083970326122
36.457142857142856,0.03621905320559953
36.57142857142857,0.03538804816955489
36.68571428571428,0.03455353262117926
36.8,0.03373560257023526
36.91428571428571,0.03296725085967635
37.028571428571425,0.03229708809847528
37.14285714285714,0.031785592254280966
37.25714285714285,0.031496434791870156
37.371428571428574,0.03148566009243537
37.48571428571429,0.03179161480162707
37.6,0.032427765687724194
37.714285714285715,0.033379314771898004
37.82857142857143,0.03460330688677839
37.94285714285714,0.036031185524013166
38.05714285714286,0.037572757720864866
38.17142857142857,0.039121218115811235
38.285714285714285,0.040559828783101055
38.4,0.04177138494119231
38.51428571428571,0.04265110748758555
38.628571428571426,0.04312194425749674
38.74285714285714,0.04314903126463251
38.857142857142854,0.0427485018236875
38.97142857142857,0.04198622227328577
39.08571428571428,0.040964877502774256
39.199999999999996,0.03980227222533851
39.31428571428571,0.03860770804261661
39.42857142857143,0.03746457737081672
39.542857142857144,0.036424748088778144
39.65714285714286,0.03551482033425577
39.77142857142857,0.03474869634714885
39.885714285714286,0.034138291034881314
40.0,0.03369623616174778
40.114285714285714,0.03342995562160103
40.22857142857143,0.033332162380469335
40.34285714285714,0.03337515440130782
40.457142857142856,0.03351388262203234
40.57142857142857,0.03369724521418122
40.68571428571428,0.03388196524813543
40.8,0.034041899621911904
40.91428571428571,0.03416853251736309
41.028571428571425,0.034263789676982355
41.14285714285714,0.03433076582803336
41.25714285714285,0.03436875856405331
41.371428571428574,0.03437575593228714
41.48571428571429,0.034356351260831024
41.6,0.03432920330503928
41.714285714285715,0.034327956976871264
41.82857142857143,0.0343930361087928
41.94285714285714,0.03455679405383932
42.05714285714286,0.034828290435463725
42.17142857142857,0.035184528630467005
42.285714285714285,0.03557227889757904
42.4,0.03592018605159451
42.51428571428571,0.03615686266403327
42.628571428571426,0.036228723210575055
42.74285714285714,0.03611191105742426
42.857142857142854,0.03581520253693183
42.97142857142857,0.035374038358962454
43.08571428571428,0.034838637069930456
43.199999999999996,0.03426069921136548
43.31428571428571,0.033683224196241576
43.42857142857143,0.03313654668509102
43.542857142857144,0.03264127283586807
43.65714285714286,0.03221606022845149
43.77142857142857,0.03188607257664316
43.885714285714286,0.03168738325752964
44.0,0.0316640952792155
44.114285714285714,0.03185812739342602
44.22857142857143,0.032295189006108935
44.34285714285714,0.03297266853395521
44.457142857142856,0.03385466867889328
44.57142857142857,0.034876231429008205
44.68571428571428,0.035954476186520215
44.8,0.03700137379192681
44.91428571428571,0.037933081681773895
45.028571428571425,0.03867413678056112
45.14285714285714,0.03915912704994155
45.25714285714285,0.03933662246898259
45.37142857142857,0.03917829498324828
45.48571428571429,0.038691263126177426
45.6,0.037927146930347426
45.714285714285715,0.03698062567994071
45.82857142857143,0.03597449649193725
45.94285714285714,0.035034985190734905
46.05714285714286,0.03426616724959545
46.17142857142857,0.033732685189288715
46.285714285714285,0.03345554425557899
46.4,0.033419634364457336
46.51428571428571,0.03358745226432925
46.628571428571426,0.033913113009367044
46.74285714285714,0.03435317692534539
46.857142857142854,0.03487352166118039
46.97142857142857,0.03545253187326519
47.08571428571428,0.03608035987245808
47.199999999999996,0.036753589690114295
47.31428571428571,0.037465764073711647
47.42857142857143,0.03819667105819603
47.542857142857144,0.03890520426497634
47.65714285714286,0.039530135765258045
47.77142857142857,0.040000001162015686
47.885714285714286,0.04024917570830184
48.0,0.040234550972846575
48.114285714285714,0.039947453501928694
48.22857142857143,0.03941815390297487
48.34285714285714,0.03871372826205098
48.457142857142856,0.03793240107530931
48.57142857142857,0.0371980892189189
48.68571428571428,0.03665790850053924
48.8,0.03648327869250272
48.91428571428571,0.03687198395580506
49.028571428571425,0.038044296588513264
49.14285714285714,0.04022264623073559
49.25714285714285,0.043584829286612836
49.37142857142857,0.04818919953332866
49.48571428571429,0.05388706900798633
49.6,0.060256453948624965
49.714285714285715,0.0666002263654929
49.82857142857143,0.07203919867898989
49.94285714285714,0.0756951738110536
50.05714285714286,0.0769143125310742
50.17142857142857,0.07545149922177655
50.285714285714285,0.07154205865418962
50.4,0.06583000798009872
50.51428571428571,0.059181648668474106
50.628571428571426,0.052458632781319264
50.74285714285714,0.04633310929018629
50.857142857142854,0.04119841864146968
50.97142857142857,0.03718152615007028
51.08571428571428,0.034223650404706464
51.199999999999996,0.032179823822081316
51.31428571428571,0.03089695188134009
51.42857142857142,0.030252005716322295
51.542857142857144,0.030153570537642067
51.65714285714286,0.030522483466492997
51.77142857142857,0.03126928751663814
51.885714285714286,0.03228104432899215
52.0,0.03342226741731762
52.114285714285714,0.03454788173005736
52.22857142857143,0.03552204858811204
52.34285714285714,0.03623592166941281
52.457142857142856,0.03661941308747702
52.57142857142857,0.03664552716254281
52.68571428571428,0.03632896911775495
52.8,0.03572201695791198
52.91428571428571,0.034909626018159556
53.028571428571425,0.03400343536882993
53.14285714285714,0.03313262310222241
53.25714285714285,0.03242984402314279
53.37142857142857,0.03201275013931043
53.48571428571429,0.031964373511906
53.6,0.03231711710197804
53.714285714285715,0.03304439093837949
53.82857142857143,0.03406169730377829
53.94285714285714,0.03523673938945308
54.05714285714286,0.036407036557674965
54.17142857142857,0.037403437864716296
54.285714285714285,0.0380776808881739
54.4,0.038330760340006494
54.51428571428571,0.038136631692875796
54.628571428571426,0.03755426303451286
54.74285714285714,0.0367220350896655
54.857142857142854,0.03583254873345928
54.97142857142857,0.035091834184712296
55.08571428571428,0.034672414271166546
