Frequency,PSD
6.057142857142857,0.30797246499964337
6.171428571428571,0.3156706107160942
6.285714285714286,0.3327624016966854
6.3999999999999995,0.3617517387726268
6.514285714285714,0.4046285112339506
6.628571428571428,0.46175698049719377
6.742857142857143,0.5314443694839546
6.857142857142857,0.6102259967315813
6.9714285714285715,0.6935097358104172
7.085714285714285,0.7761479530223938
7.2,0.8527823966307413
7.314285714285714,0.9181726956879179
7.428571428571428,0.9678349830817248
7.542857142857143,0.9990878835252897
7.657142857142857,1.0122542301676982
7.771428571428571,1.0115912883509461
7.885714285714285,1.0055780327198454
8.0,1.0063028705342312
8.114285714285714,1.027757741814879
8.228571428571428,1.08299506693008
8.342857142857143,1.1805493483403335
8.457142857142857,1.3211677143061595
8.571428571428571,1.496236553085852
8.685714285714285,1.6888387399487148
8.799999999999999,1.8772024930608389
8.914285714285715,2.039169077244565
9.028571428571428,2.156052518266774
9.142857142857142,2.2150059598139387
9.257142857142856,2.21000941751971
9.371428571428572,2.1420153465713176
9.485714285714286,2.018513728121607
9.6,1.8523903419513619
9.714285714285714,1.6599820840377557
9.828571428571427,1.4586117787093946
9.942857142857143,1.2641652371411374
10.057142857142857,1.0892118341206505
10.17142857142857,0.9419197844951916
10.285714285714285,0.8258177729749743
10.4,0.7403312122026369
10.514285714285714,0.6818701256166572
10.628571428571428,0.6450871264125508
10.742857142857142,0.6239226271505133
10.857142857142858,0.6122812451352709
10.971428571428572,0.6044676844115333
11.085714285714285,0.5955970222448266
11.2,0.58202377290134
11.314285714285713,0.5616146584925361
11.428571428571429,0.5336770388752656
11.542857142857143,0.4985776273497917
11.657142857142857,0.45731627554400134
11.77142857142857,0.41131591532485606
11.885714285714286,0.36245277604018167
12.0,0.3131141371864626
12.114285714285714,0.2660491659581361
12.228571428571428,0.22396182587024976
12.342857142857142,0.18899582856057018
12.457142857142857,0.16232317358273446
12.571428571428571,0.14396950608120984
12.685714285714285,0.13289339493275226
12.799999999999999,0.12726473335326552
12.914285714285715,0.12486779830127878
13.028571428571428,0.1235527430296526
13.142857142857142,0.12164988123190262
13.257142857142856,0.11824954397470651
13.371428571428572,0.11326388024866302
13.485714285714286,0.10724750926156561
13.6,0.10104894696065062
13.714285714285714,0.09544251957719511
13.828571428571427,0.09089393822031895
13.942857142857143,0.08752950234140955
14.057142857142857,0.08526009565061055
14.17142857142857,0.0839353110131706
14.285714285714285,0.08341605179218359
14.4,0.0835373889336623
14.514285714285714,0.08402406009816947
14.628571428571428,0.08445781177692317
14.742857142857142,0.08435779063517454
14.857142857142856,0.08335074356494901
14.971428571428572,0.08133580327414243
15.085714285714285,0.07854055503795081
15.2,0.07542814168709916
15.314285714285713,0.07250535440323573
15.428571428571429,0.07013650493193967
15.542857142857143,0.06845354728521755
15.657142857142857,0.06738625886107803
15.77142857142857,0.06676684410335981
15.885714285714284,0.06643472683359958
16.0,0.0662892245181681
16.114285714285714,0.06628570342180623
16.228571428571428,0.06640831853403989
16.34285714285714,0.06665699797106177
16.457142857142856,0.06706084118613241
16.57142857142857,0.06769688429506279
16.685714285714287,0.06867816029191631
16.8,0.07009140433140842
16.914285714285715,0.07190362000229981
17.02857142857143,0.07389054330798055
17.142857142857142,0.07564159547915247
17.257142857142856,0.07665980914711837
17.37142857142857,0.07652293394454845
17.485714285714284,0.07503540868597966
17.599999999999998,0.0723009422182169
17.714285714285715,0.06868233414349444
17.82857142857143,0.06467100851705211
17.942857142857143,0.060734135723756286
18.057142857142857,0.057213719676637895
18.17142857142857,0.05431225171609713
18.285714285714285,0.052139709207461374
18.4,0.05076122639155613
18.514285714285712,0.05019938850646899
18.628571428571426,0.05039351161371064
18.742857142857144,0.05115784953633886
18.857142857142858,0.0521816868800365
18.97142857142857,0.05308327211457847
19.085714285714285,0.05349647169308854
19.2,0.05315635401073721
19.314285714285713,0.05195698498885769
19.428571428571427,0.04996843323444523
19.54285714285714,0.04741224781838113
19.657142857142855,0.044605192050870136
19.771428571428572,0.04188891495881486
19.885714285714286,0.039564914531528446
20.0,0.03784956282134227
20.114285714285714,0.03685760010278955
20.228571428571428,0.036615679928865344
20.34285714285714,0.037096558021205255
20.457142857142856,0.03825095310841648
20.57142857142857,0.04001101099396543
20.685714285714287,0.04225827104790503
20.8,0.04478120887606526
20.914285714285715,0.047265278415687804
21.02857142857143,0.04934186209161796
21.142857142857142,0.05068166205242568
21.257142857142856,0.05108544581775522
21.37142857142857,0.05052580202113717
21.485714285714284,0.04912421626833244
21.599999999999998,0.04708358666711329
21.714285714285715,0.04461458931796748
21.82857142857143,0.04188929533221028
21.942857142857143,0.039035475597723246
22.057142857142857,0.036162463422854826
22.17142857142857,0.03339441560971993
22.285714285714285,0.03088530802774589
22.4,0.028802135856711743
22.514285714285712,0.027281820010921897
22.628571428571426,0.02638273522081728
22.742857142857144,0.026055550068295255
22.857142857142858,0.02614907013828336
22.97142857142857,0.02645031867957759
23.085714285714285,0.026742487216293038
23.2,0.026857256881708466
23.314285714285713,0.026702928961730252
23.428571428571427,0.02626388833014026
23.54285714285714,0.02558142170899331
23.657142857142855,0.024731690227283127
23.771428571428572,0.023811014880819208
23.885714285714286,0.022927469398223644
24.0,0.022190565952991265
24.114285714285714,0.021692723671702246
24.228571428571428,0.021484398225466203
24.34285714285714,0.021552007159682883
24.457142857142856,0.021809268344099006
24.57142857142857,0.022108762392291106
24.685714285714283,0.0222743175094733
24.8,0.02214771886316296
24.914285714285715,0.021636073647016297
25.02857142857143,0.020742120294083143
25.142857142857142,0.019563691590497596
25.257142857142856,0.01826129275804341
25.37142857142857,0.01700770909191384
25.485714285714284,0.01594093080956009
25.599999999999998,0.015137083031624579
25.71428571428571,0.014608104346130045
25.82857142857143,0.014318340410820564
25.942857142857143,0.014209993565598048
26.057142857142857,0.014228042252772488
26.17142857142857,0.01433698113282881
26.285714285714285,0.014523631960297453
26.4,0.014784746708997685
26.514285714285712,0.015106117682273363
26.628571428571426,0.015447028253478486
26.742857142857144,0.015743023102957054
26.857142857142858,0.015928806458022294
26.97142857142857,0.015968288486327694
27.085714285714285,0.015871758190229
27.2,0.015687335166098926
27.314285714285713,0.01547090223693485
27.428571428571427,0.015253499764516284
27.54285714285714,0.01502696030857867
27.657142857142855,0.014756146581331741
27.771428571428572,0.014408544385739248
27.885714285714286,0.013981499803439108
28.0,0.013510576840589457
28.114285714285714,0.013055769444557198
28.228571428571428,0.012675642678146477
28.34285714285714,0.012404441230063365
28.457142857142856,0.012242446648045933
28.57142857142857,0.012160659423846747
28.685714285714283,0.0121140335407584
28.8,0.012056238034178136
28.914285714285715,0.011951566351540665
29.02857142857143,0.011782330731851705
29.142857142857142,0.011550925891831362
29.257142857142856,0.0112759975249334
29.37142857142857,0.010983761628841576
29.485714285714284,0.010697965869915851
29.599999999999998,0.010432658539005933
29.71428571428571,0.0101897612409096
29.82857142857143,0.009960694766145476
29.942857142857143,0.009730679704169501
30.057142857142857,0.00948521291537426
30.17142857142857,0.009217702985524389
30.285714285714285,0.008934805383792795
30.4,0.008655042679727928
30.514285714285712,0.008399836966809706
30.628571428571426,0.008182044343719096
30.74285714285714,0.007999746877939359
30.857142857142858,0.007839313952315723
30.97142857142857,0.0076847485896199275
31.085714285714285,0.007526348637329983
31.2,0.0073637780747693015
31.314285714285713,0.007203947688406345
31.428571428571427,0.007057423040373743
31.54285714285714,0.006936101738994923
31.657142857142855,0.006851837335808639
31.77142857142857,0.006814162834054284
31.885714285714286,0.006826532698805328
32.0,0.006882791730778305
32.114285714285714,0.006966445635730388
32.22857142857143,0.007053949979020815
32.34285714285714,0.007120801956620481
32.457142857142856,0.007147553965974596
32.57142857142857,0.007123115319547818
32.68571428571428,0.007044661029757768
32.8,0.006915746655899753
32.91428571428571,0.006745145577983311
33.028571428571425,0.006547640588169761
33.14285714285714,0.006345334942112223
33.25714285714285,0.0061662005363391555
33.371428571428574,0.006037576126749097
33.48571428571429,0.0059760789871918085
33.6,0.005979169818229825
33.714285714285715,0.006023992464990349
33.82857142857143,0.0060751375218869325
33.94285714285714,0.006097457453863852
34.05714285714286,0.00606730426128585
34.17142857142857,0.005977503282063871
34.285714285714285,0.005835914638548054
34.4,0.005660631736422497
34.51428571428571,0.005474684643423416
34.628571428571426,0.005300964376596511
34.74285714285714,0.005156939213199243
34.857142857142854,0.005049926938726339
34.97142857142857,0.004975536986142361
35.08571428571428,0.004921530775663836
35.199999999999996,0.004875969065854115
35.31428571428572,0.0048347458585135394
35.42857142857143,0.004803204167750323
35.542857142857144,0.004790526716328671
35.65714285714286,0.00480095703401508
35.77142857142857,0.004828235791272203
35.885714285714286,0.004857171355179446
36.0,0.004871160716312106
36.114285714285714,0.00486056999293524
36.22857142857143,0.004826593689192975
36.34285714285714,0.004778308456423412
36.457142857142856,0.00472499844428762
36.57142857142857,0.0046688492412066025
36.68571428571428,0.004602975370305506
36.8,0.004516468962816402
36.91428571428571,0.004403752498600888
37.028571428571425,0.00427275228288365
37.14285714285714,0.004146814631167037
37.25714285714285,0.004058296105342803
37.371428571428574,0.004035652808157193
37.48571428571429,0.004089122726127631
37.6,0.00420167315968013
37.714285714285715,0.004330721972590212
37.82857142857143,0.0044217272228390695
37.94285714285714,0.004428558863536068
38.05714285714286,0.004331285126508509
38.17142857142857,0.004142977871902471
38.285714285714285,0.0039031698732829804
38.4,0.0036625706047938786
38.51428571428571,0.003466918917848522
38.628571428571426,0.0033460889367121186
38.74285714285714,0.0033102757599312448
38.857142857142854,0.0033517444607708926
38.97142857142857,0.003449711464885753
39.08571428571428,0.003576552187235375
39.199999999999996,0.00370416603536642
39.31428571428571,0.003809402303586187
39.42857142857143,0.0038774179108917615
39.542857142857144,0.003902275547179886
39.65714285714286,0.0038849974841314826
39.77142857142857,0.0038302057772640788
39.885714285714286,0.003742974893164962
40.0,0.003627396403355316
40.114285714285714,0.0034875238644726334
40.22857142857143,0.0033299554051803007
40.34285714285714,0.0031659948597773492
40.457142857142856,0.003011206461340431
40.57142857142857,0.0028817939234607624
40.68571428571428,0.0027896596929018924
40.8,0.002739240884794474
40.91428571428571,0.002727996429005104
41.028571428571425,0.0027495975171387427
41.14285714285714,0.0027968894643028057
41.25714285714285,0.002862341030917529
41.371428571428574,0.002936375449134566
41.48571428571429,0.0030061914285397714
41.6,0.0030573714296662675
41.714285714285715,0.003078028320649003
41.82857142857143,0.003062797934718129
41.94285714285714,0.0030138541238018237
42.05714285714286,0.002938404499641389
42.17142857142857,0.0028447988781507643
42.285714285714285,0.0027401769193761295
42.4,0.0026309511854799026
42.51428571428571,0.002524881625155564
42.628571428571426,0.002432173649230237
42.74285714285714,0.0023638841636212642
42.857142857142854,0.0023281483616529827
42.97142857142857,0.0023266054106783492
43.08571428571428,0.0023535431660436376
43.199999999999996,0.002398576016970863
43.31428571428571,0.002451260789316589
43.42857142857143,0.0025046523068506764
43.542857142857144,0.0025555403913980804
43.65714285714286,0.0026016208640633324
43.77142857142857,0.0026383039066661565
43.885714285714286,0.0026582593327358853
44.0,0.0026546539598999554
44.114285714285714,0.0026259611104514713
44.22857142857143,0.002578707759114929
44.34285714285714,0.00252583606741978
44.457142857142856,0.002481411991493471
44.57142857142857,0.0024547596933693436
44.68571428571428,0.0024470954306265243
44.8,0.002451840079141041
44.91428571428571,0.0024577821258713823
45.028571428571425,0.00245339463011763
45.14285714285714,0.0024307394708470553
45.25714285714285,0.0023877737745475443
45.37142857142857,0.002328303209522386
45.48571428571429,0.0022596640785360984
45.6,0.0021894324853048335
45.714285714285715,0.0021231670741228507
45.82857142857143,0.002064466688435856
45.94285714285714,0.002016738063666777
46.05714285714286,0.0019845877019483067
46.17142857142857,0.0019731181337114168
46.285714285714285,0.001985396030847989
46.4,0.0020201418311244883
46.51428571428571,0.0020716140220200935
46.628571428571426,0.002131896368025161
46.74285714285714,0.0021940697734778854
46.857142857142854,0.0022544784298297637
46.97142857142857,0.0023132543556773017
47.08571428571428,0.002373208799789549
47.199999999999996,0.002437521305367368
47.31428571428571,0.0025068865146799938
47.42857142857143,0.0025774342092970137
47.542857142857144,0.0026411986944086907
47.65714285714286,0.0026899900317430966
47.77142857142857,0.002721161318697869
47.885714285714286,0.0027417367489101564
48.0,0.0027678030910473243
48.114285714285714,0.00281933353793855
48.22857142857143,0.002914796815022022
48.34285714285714,0.0030727180051844634
48.457142857142856,0.0033286047257640337
48.57142857142857,0.003777418880018873
48.68571428571428,0.004654812132783155
48.8,0.006468204691876535
48.91428571428571,0.01016532418296898
49.028571428571425,0.017266898956120116
49.14285714285714,0.029802618830119133
49.25714285714285,0.04984254248223048
49.37142857142857,0.07852235189535425
49.48571428571429,0.1147841432951845
49.6,0.15447123062258492
49.714285714285715,0.1905853116248439
49.82857142857143,0.21510692252960542
49.94285714285714,0.22185607168965585
50.05714285714286,0.209022951641841
50.17142857142857,0.179956549223101
50.285714285714285,0.14174233048940973
50.4,0.10239214816094205
50.51428571428571,0.06816522612686389
50.628571428571426,0.042207741046458275
50.74285714285714,0.02473532614591118
50.857142857142854,0.014156773336430287
50.97142857142857,0.00831500286751324
51.08571428571428,0.005315397095772941
51.199999999999996,0.003840175012648948
51.31428571428571,0.0031144565996329933
51.42857142857142,0.002737760040878768
51.542857142857144,0.002520356575980213
51.65714285714286,0.0023750020172092854
51.77142857142857,0.0022611935294597476
51.885714285714286,0.002161809121264686
52.0,0.002074002903427062
52.114285714285714,0.0020037900638483898
52.22857142857143,0.0019604031343304204
52.34285714285714,0.0019504934790137395
52.457142857142856,0.0019737983021461646
52.57142857142857,0.0020217493330203684
52.68571428571428,0.0020794279401667687
52.8,0.0021299420801174176
52.91428571428571,0.002159344741182972
53.028571428571425,0.0021601285270406293
53.14285714285714,0.0021321835275593544
53.25714285714285,0.002081387203177621
53.37142857142857,0.0020169345958140263
53.48571428571429,0.0019486557639522607
53.6,0.0018850627983732144
53.714285714285715,0.0018322571976192561
53.82857142857143,0.0017935177634327058
53.94285714285714,0.0017693835177614694
54.05714285714286,0.001758101618433797
54.17142857142857,0.0017562807581870171
54.285714285714285,0.001759571651895188
54.4,0.0017633281450734155
54.51428571428571,0.0017633932889440428
54.628571428571426,0.001757118517292529
54.74285714285714,0.0017443613057144263
54.857142857142854,0.001727847267015473
54.97142857142857,0.0017123859477354464
55.08571428571428,0.00170304369962411
