Frequency,PSD
6.0,0.36359214438049303
6.08,0.36620401071745246
6.16,0.3733210316483887
6.24,0.38760903664623647
6.32,0.41082103297010425
6.4,0.44229546508733625
6.48,0.47822031435603757
6.5600000000000005,0.5120004112183167
6.640000000000001,0.5358718403806
6.72,0.5435414725295621
6.8,0.5329083598065766
6.88,0.5073389688256821
6.96,0.47445881946596097
7.04,0.44304260642709914
7.12,0.4198948818005842
7.2,0.40825080652309725
7.28,0.40774910426271604
7.36,0.4152070046858694
7.44,0.42585175774846595
7.5200000000000005,0.4351542533164455
7.6000000000000005,0.440950525002357
7.68,0.4447537966470032
7.76,0.45127637067416615
7.84,0.4662274020437054
7.92,0.49341313744996207
8.0,0.5324954788089956
8.08,0.5786489372235836
8.16,0.624641452751197
8.24,0.6642419319066875
8.32,0.6944174884745801
8.4,0.714583055252443
8.48,0.7241606515924699
8.56,0.7216782342501714
8.64,0.7068901678511121
8.72,0.6836377736248644
8.8,0.659833286571103
8.88,0.6437716657937622
8.96,0.6397928855651324
9.040000000000001,0.6469030147047271
9.120000000000001,0.6608685119920064
9.200000000000001,0.6770562219351223
9.28,0.6913015849700961
9.36,0.699035844474528
9.44,0.6952633920685711
9.52,0.6769468576162594
9.6,0.6461093242345772
9.68,0.6103803328425745
9.76,0.579750792874762
9.84,0.561761245069285
9.92,0.5586955139328192
10.0,0.5685504219236169
10.08,0.5884613873083469
10.16,0.6174311745385659
10.24,0.6559957924177582
10.32,0.703278761763442
10.4,0.7543970794987935
10.48,0.8010237267593668
10.56,0.8350991976539275
10.64,0.8529052476253645
10.72,0.8565544142781611
10.8,0.8522223675339469
10.88,0.8467937054154352
10.96,0.8451593226442199
11.040000000000001,0.849277978186793
11.120000000000001,0.8585740013341123
11.200000000000001,0.8705300679427617
11.28,0.8809153811371045
11.36,0.8842864830851618
11.44,0.8757708755154805
11.52,0.8539118110582029
11.6,0.8225632746580529
11.68,0.7896338925590198
11.76,0.7628386141667589
11.84,0.7456672111417112
11.92,0.7371499207598825
12.0,0.7355039524441758
12.08,0.741563580503566
12.16,0.7578045803982416
12.24,0.7835229262680252
12.32,0.8113752674910744
12.4,0.8296907419764357
12.48,0.8293559307243945
12.56,0.8096715583263316
12.64,0.7787454182307407
12.72,0.7487957823779656
12.8,0.7300858820456115
12.88,0.7268295736370625
12.96,0.736203630406102
13.040000000000001,0.7500430280003658
13.120000000000001,0.758237674126994
13.200000000000001,0.7525434829212634
13.280000000000001,0.7293960639830781
13.36,0.690789054899008
13.44,0.6432025918916626
13.52,0.5952748862784254
13.6,0.555069889353811
13.68,0.5276586088637409
13.76,0.5136149033028442
13.84,0.508922735895537
13.92,0.506513836033101
14.0,0.4990947190260289
14.08,0.48221487694765464
14.16,0.45613759785240904
14.24,0.4255192754143692
14.32,0.3971016012675107
14.4,0.3767220433288379
14.48,0.36713623540187784
14.56,0.3674519538757216
14.64,0.37405622002382166
14.72,0.3823184951274804
14.8,0.38822320583472225
14.88,0.38934286819533703
14.96,0.38501853580194645
15.040000000000001,0.37599740722232405
15.120000000000001,0.3638730393596265
15.200000000000001,0.3505234637280758
15.280000000000001,0.3376056891539147
15.36,0.32616774712164315
15.44,0.31644185285270243
15.52,0.30782025173251615
15.6,0.299042527733156
15.68,0.2887149575706676
15.76,0.27612312789680776
15.84,0.2618630175720637
15.92,0.24766338155743256
16.0,0.2353442183001681
16.080000000000002,0.22569060133979074
16.16,0.21815871331488834
16.240000000000002,0.2115389478530914
16.32,0.20485300783696309
16.4,0.19775805989057588
16.48,0.1904030088649503
16.56,0.18315078794978662
16.64,0.17644070725737815
16.72,0.17072395028072368
16.8,0.16633259774332537
16.88,0.16329369574778163
16.96,0.16120429827603533
17.04,0.15928237124684164
17.12,0.1566674027327743
17.2,0.15292451898548953
17.28,0.14849723609897578
17.36,0.14475265516005206
17.44,0.14345449443696945
17.52,0.1458668270826386
17.6,0.15193918071403686
17.68,0.16001124662187133
17.76,0.16725862454942245
17.84,0.17075939746632107
17.92,0.1687076776801856
18.0,0.16116237805217662
18.080000000000002,0.14995426779952525
18.16,0.13783632840646481
18.240000000000002,0.1273364557534493
18.32,0.11986978257088769
18.400000000000002,0.11548771354242557
18.48,0.11328232310555271
18.56,0.11212004058802058
18.64,0.11126332389857448
18.72,0.1106065174468357
18.8,0.1105287582138641
18.88,0.11152910993444136
18.96,0.11380554247047271
19.04,0.1169112871285885
19.12,0.11967755321243313
19.2,0.12059677825627105
19.28,0.11860248616809498
19.36,0.11377436072550261
19.44,0.10740103155756636
19.52,0.10129136325644682
19.6,0.09684669760930624
19.68,0.09456183051724869
19.76,0.09418226448312272
19.84,0.09519721508385076
19.92,0.09719815275068283
20.0,0.09989690100105558
20.080000000000002,0.10292276576672019
20.16,0.10563850301189918
20.240000000000002,0.10715042220837265
20.32,0.10656275246288933
20.400000000000002,0.10337982637449797
20.48,0.09781921442472866
20.56,0.09078948528336267
20.64,0.08349523133681039
20.72,0.07692009689070756
20.8,0.07153486210395421
20.88,0.06737419598877152
20.96,0.06430895711608257
21.04,0.06221782229274216
21.12,0.0609500691674643
21.2,0.06025144749190957
21.28,0.05986177153148499
21.36,0.059738680084254
21.44,0.0601413726083579
21.52,0.06141434846264489
21.6,0.06362788390267132
21.68,0.06638996703949636
21.76,0.06898442447961105
21.84,0.07071375263336854
21.92,0.0712038920978638
22.0,0.07051081609032041
22.080000000000002,0.06901773511643851
22.16,0.06720986177686569
22.240000000000002,0.06544900327633232
22.32,0.06386369358772123
22.400000000000002,0.06241307659085614
22.48,0.061071707551784184
22.56,0.05998172885170604
22.64,0.059428513073048445
22.72,0.059636813272413366
22.8,0.060540090118760166
22.88,0.061698449857758304
22.96,0.06242042180035421
23.04,0.062014496994550784
23.12,0.06005883409104075
23.2,0.056593918189683644
23.28,0.052150781732199045
23.36,0.047563279019782786
23.44,0.0436283900567547
23.52,0.040801158787112504
23.6,0.03910385872367625
23.68,0.038272684405288866
23.76,0.037996007075172464
23.84,0.03806156666969253
23.92,0.03834139266020127
24.0,0.03869359302378695
24.080000000000002,0.03892247637566599
24.16,0.038867019114689934
24.240000000000002,0.038547381222391354
24.32,0.03821623492903325
24.400000000000002,0.03822085558560413
24.48,0.03874384052475721
24.560000000000002,0.03961436819232016
24.64,0.0403506294772666
24.72,0.040423396463843284
24.8,0.03955982407459185
24.88,0.037878349909994294
24.96,0.035782262382698306
25.04,0.033720866736633465
25.12,0.03199857487865633
25.2,0.030730357084058774
25.28,0.029907498718362135
25.36,0.029477268412635583
25.44,0.029378925422790324
25.52,0.02954395195462125
25.6,0.02989159978678902
25.68,0.03033089622488877
25.76,0.030760094121845466
25.84,0.031061576400997583
25.92,0.031109048323277166
26.0,0.03080241934685292
26.080000000000002,0.03011922377254342
26.16,0.029147766200052373
26.240000000000002,0.028071084308085584
26.32,0.02709910658522614
26.400000000000002,0.026380391819699166
26.48,0.025945923556896018
26.560000000000002,0.025727011595663957
26.64,0.025640530233182347
26.72,0.025676556007928127
26.8,0.025910135454019195
26.88,0.026414178682711665
26.96,0.027133881014076048
27.04,0.027824952312133725
27.12,0.028121200457595762
27.2,0.027704993623324774
27.28,0.026475661875300458
27.36,0.024612423801634243
27.44,0.02250980200643581
27.52,0.02064532143116297
27.6,0.019447954537605002
27.68,0.019191062406579164
27.76,0.019911399469186106
27.84,0.021378750119616076
27.92,0.023156147956099122
28.0,0.024752724689611455
28.080000000000002,0.025803399971821926
28.16,0.026176959255512056
28.240000000000002,0.02595459476265869
28.32,0.02530749342163503
28.400000000000002,0.02436636945399928
28.48,0.02316996959557025
28.560000000000002,0.02171359161799535
28.64,0.020045295123196187
28.72,0.01832812230285112
28.8,0.01681629471072051
28.88,0.01575579347891469
28.96,0.015271453959755783
29.04,0.015311652504319954
29.12,0.01568240838527059
29.2,0.01614185098328271
29.28,0.016491012394027886
29.36,0.01661582960557316
29.44,0.01648305633950801
29.52,0.01611886703071079
29.6,0.015587803838470225
29.68,0.014970832393640079
29.76,0.014340480540279666
29.84,0.013741049289616229
29.92,0.013184618937463458
30.0,0.012665646060323629
30.080000000000002,0.012185389323693325
30.16,0.011769325607845769
30.240000000000002,0.011463463864504295
30.32,0.011311349734988874
30.400000000000002,0.011329962814746224
30.48,0.011501884074757107
30.560000000000002,0.011784124806883386
30.64,0.012121450692203075
30.72,0.012456259648720365
30.8,0.012736879457772497
30.88,0.012926075771967345
30.96,0.013005114960041345
31.04,0.012970444848090996
31.12,0.012829584698445062
31.2,0.01260341709676709
31.28,0.012329258824599272
31.36,0.012052638202031219
31.44,0.01180919080367698
31.52,0.011613245450429497
31.6,0.01146284620431643
31.68,0.01135131190578436
31.76,0.011270706404226168
31.84,0.011206438439974549
31.92,0.01113319921990159
32.0,0.011019621855587775
32.08,0.010841951772773176
32.160000000000004,0.01060249336717652
32.24,0.010342471131473224
32.32,0.010133523947554238
32.4,0.010040581058625256
32.480000000000004,0.010073800526473801
32.56,0.01016700023690157
32.64,0.01020843347562926
32.72,0.01010838390604449
32.8,0.009853570970068695
32.88,0.009508542591581709
32.96,0.009171583246271235
33.04,0.00892623773794871
33.12,0.008816460117698153
33.2,0.008840729206052897
33.28,0.008953354159165126
33.36,0.009077749864073439
33.44,0.0091385220140924
33.52,0.009097304426175568
33.6,0.008964914375704822
33.68,0.008781655128384198
33.76,0.008586149629055458
33.84,0.008398713728509317
33.92,0.008227468135813891
34.0,0.008086232611436964
34.08,0.008006109894127068
34.160000000000004,0.008027035081850134
34.24,0.00816927223498939
34.32,0.008403332765407726
34.4,0.008646045404600181
34.480000000000004,0.008796477388917222
34.56,0.00879344434656649
34.64,0.008653261922932956
34.72,0.008456695079734972
34.800000000000004,0.008293103766106098
34.88,0.008203728087703241
34.96,0.008163711043814146
35.04,0.00810817725595339
35.12,0.00797652428721744
35.2,0.007746601592689222
35.28,0.0074470525250791
35.36,0.007147904935728201
35.44,0.006931782624415616
35.52,0.006853553884369175
35.6,0.00690828994256436
35.68,0.007031683380431705
35.76,0.007139800262285643
35.84,0.0071834194480818805
35.92,0.007174477611503811
36.0,0.007161825473584814
36.08,0.007178198391044582
36.160000000000004,0.007206083883063631
36.24,0.007189616017311657
36.32,0.007076308607728547
36.4,0.006852245561452943
36.480000000000004,0.0065503175062930005
36.56,0.006235311384167108
36.64,0.005976855962104001
36.72,0.005818311508243931
36.800000000000004,0.005753690231558896
36.88,0.005730062432394954
36.96,0.0056807941462873705
37.04,0.005568594549741624
37.12,0.005405720696783933
37.2,0.005238700900633058
37.28,0.005115921435324135
37.36,0.005064963041490855
37.44,0.005088259176897872
37.52,0.005167234178085838
37.6,0.005266959234579566
37.68,0.005345358746466113
37.76,0.00537154030286075
37.84,0.005345230336978387
37.92,0.005301708212039218
38.0,0.00529534215573485
38.08,0.0053706901890100125
38.160000000000004,0.005537874137695538
38.24,0.005764731260164448
38.32,0.005988751433253017
38.4,0.006143246706857624
38.480000000000004,0.006186207913488019
38.56,0.0061176026780145314
38.64,0.005974514704025265
38.72,0.005806087530020694
38.800000000000004,0.005646024710945323
38.88,0.005504197585528569
38.96,0.005381737388508678
39.04,0.005290233613493606
39.12,0.005251904949396574
39.2,0.005279616491338892
39.28,0.005358516986893864
39.36,0.005449448501342323
39.44,0.005511849356855003
39.52,0.005525629878235599
39.6,0.005494466138134539
39.68,0.005431618499788092
39.76,0.005344624627383859
39.84,0.005232908322552864
39.92,0.005096611787899063
40.0,0.004943928539897671
40.08,0.004789160106052977
40.160000000000004,0.004645729364868767
40.24,0.0045217705265660196
40.32,0.004419549990157232
40.4,0.004335549130984093
40.480000000000004,0.004260926014773916
40.56,0.004185359261879955
40.64,0.004104624947664946
40.72,0.004026860467368212
40.800000000000004,0.003971155700376637
40.88,0.003956863040439204
40.96,0.003989197849934628
41.04,0.004050793417107864
41.12,0.0041062246736825025
41.2,0.004118252256222208
41.28,0.0040664659396073615
41.36,0.003957206507695849
41.44,0.003819475515729198
41.52,0.0036903938845410204
41.6,0.003598838759206204
41.68,0.003554529777951309
41.76,0.0035457583892340274
41.84,0.003546311264915245
41.92,0.003529777707085022
42.0,0.00348506466221153
42.08,0.0034240630401688064
42.160000000000004,0.0033763126335547124
42.24,0.0033739760884082468
42.32,0.0034355684732293584
42.4,0.0035557173117463326
42.480000000000004,0.0037046679379731983
42.56,0.0038382346509909003
42.64,0.003915297610741979
42.72,0.003915669116190193
42.800000000000004,0.003849526269248983
42.88,0.003753001980562761
42.96,0.0036711089761887064
43.04,0.003635480829605941
43.12,0.00364833520832949
43.2,0.003683197090118039
43.28,0.0037039377686160207
43.36,0.003689194520913562
43.44,0.003642438039297459
43.52,0.0035801238301235837
43.6,0.0035121083375660913
43.68,0.0034353799465800623
43.76,0.00334513029861976
43.84,0.0032468744167040396
43.92,0.003154242065270575
44.0,0.0030761493020397884
44.08,0.0030095499779155205
44.160000000000004,0.0029461292157009333
44.24,0.002885075413573109
44.32,0.0028387018544418635
44.4,0.002826685622840143
44.480000000000004,0.002865471951015745
44.56,0.0029606772659746764
44.64,0.0031040117381911543
44.72,0.0032721530487182966
44.800000000000004,0.003427730429974461
44.88,0.003526464489547786
44.96,0.003531913368622604
45.04,0.0034314958123520586
45.12,0.0032437902099594074
45.2,0.003012544368136555
45.28,0.002791485790385939
45.36,0.0026275863337096948
45.44,0.002548349573091536
45.52,0.0025556922660950002
45.6,0.0026271948811331953
45.68,0.0027240249006812555
45.76,0.002803650547624128
45.84,0.002834632399997903
45.92,0.0028088988034350414
46.0,0.0027445839739826013
46.08,0.0026746564211913015
46.160000000000004,0.0026259986017113796
46.24,0.0026033636656720358
46.32,0.0025909855428313602
46.4,0.0025700050207222956
46.480000000000004,0.00253597466886581
46.56,0.0025017513082211187
46.64,0.0024852107517669628
46.72,0.002493686344602966
46.800000000000004,0.0025176638965843795
46.88,0.0025376653693574835
46.96,0.002538570314394306
47.04,0.0025205822965342767
47.12,0.0024983091711751337
47.2,0.002488371904803468
47.28,0.0024954072527316913
47.36,0.002507793057210904
47.44,0.0025060789497943423
47.52,0.0024767134289152212
47.6,0.0024203709591364905
47.68,0.002349680987216718
47.76,0.0022798369865328905
47.84,0.0022204232044432948
47.92,0.0021743386043078516
48.0,0.002142408723558014
48.08,0.0021273232241814273
48.160000000000004,0.0021328244266805713
48.24,0.0021601437131731765
48.32,0.0022059073147583617
48.4,0.002262482639836614
48.480000000000004,0.0023188863045716865
48.56,0.002361887863535951
48.64,0.0023791749977110366
48.72,0.00236462382639413
48.800000000000004,0.0023218297567940104
48.88,0.002262036564976231
48.96,0.00219766076804951
49.04,0.002137203482041987
49.120000000000005,0.002085899629736005
49.2,0.0020501071890548055
49.28,0.0020391065465597165
49.36,0.002060672125381701
49.44,0.0021136633348924593
49.52,0.0021844732428035786
49.6,0.0022509921494262564
49.68,0.0022915847125767885
49.76,0.002293224064096131
49.84,0.002254329583224104
49.92,0.0021820498254577006
50.0,0.0020875569380508427
50.08,0.001983619680891238
50.160000000000004,0.0018854282269826356
50.24,0.0018111053863543655
50.32,0.0017774936813103395
50.4,0.0017915383385150828
50.480000000000004,0.0018435360974445626
50.56,0.0019090398614775295
50.64,0.0019598417541255575
50.72,0.0019770813572166264
50.800000000000004,0.001958102409911327
50.88,0.0019138926662506505
50.96,0.001860394291858915
51.04,0.0018096952112825124
51.120000000000005,0.0017656752237442744
51.2,0.0017253736552929038
51.28,0.0016841493567864175
51.36,0.001640845533139668
51.44,0.0015995268693959949
51.52,0.001566881741592403
51.6,0.0015475808186961749
51.68,0.0015413747926568567
51.76,0.0015440223066925506
51.84,0.0015506868725252611
51.92,0.0015587852031025227
52.0,0.0015688471185605103
52.08,0.0015839786859374837
52.160000000000004,0.0016082784181847484
52.24,0.0016437710427138
52.32,0.0016870527231233924
52.4,0.0017291217580913364
52.480000000000004,0.001760223227307827
52.56,0.0017762819583448837
52.64,0.0017808790924690558
52.72,0.001780656019512595
52.800000000000004,0.0017784504513045345
52.88,0.0017703992591896773
52.96,0.0017491559667366912
53.04,0.0017100986259298723
53.120000000000005,0.0016559029337641232
53.2,0.0015973275351396357
53.28,0.0015509785489320775
53.36,0.0015352505211145952
53.44,0.001564282829985028
53.52,0.0016400050481166608
53.6,0.0017456674334821818
53.68,0.0018470514152005204
53.76,0.0019046285038499524
53.84,0.0018917828941803503
53.92,0.0018081349816050096
54.0,0.001679293706855488
54.08,0.0015433628176870259
54.160000000000004,0.0014328791090726615
54.24,0.0013627630424077998
54.32,0.0013298342978530385
54.4,0.0013214329390386385
54.480000000000004,0.0013253655735534194
54.56,0.0013344610572904852
54.64,0.0013449604497539364
54.72,0.0013531735974332457
54.800000000000004,0.0013549913490963302
54.88,0.0013487303961894723
54.96,0.0013377775208366124
55.04,0.001329330829455272
