Frequency,PSD
6.057142857142857,0.3361648820541793
6.171428571428571,0.3335977718194141
6.285714285714286,0.33021838775065226
6.3999999999999995,0.3293511360086405
6.514285714285714,0.3351188990274184
6.628571428571428,0.35090934929247164
6.742857142857143,0.3776227851263645
6.857142857142857,0.41274038291134596
6.9714285714285715,0.4509775819758722
7.085714285714285,0.486373279122804
7.2,0.5147524168002509
7.314285714285714,0.5352253661674331
7.428571428571428,0.5499516918408611
7.542857142857143,0.5624419060634889
7.657142857142857,0.5755157559320795
7.771428571428571,0.5901366727100442
7.885714285714285,0.6056952769846412
8.0,0.6214004743145582
8.114285714285714,0.6377862332757522
8.228571428571428,0.6572646037233769
8.342857142857143,0.6832286089595612
8.457142857142857,0.7181580300114808
8.571428571428571,0.7618301583491078
8.685714285714285,0.8105503884578881
8.799999999999999,0.8575593791440579
8.914285714285715,0.8942547234524356
9.028571428571428,0.9119621645551388
9.142857142857142,0.9042349050522767
9.257142857142856,0.8693961990562199
9.371428571428572,0.812317258930379
9.485714285714286,0.7440693249035981
9.6,0.6788648559247807
9.714285714285714,0.6293462461645287
9.828571428571427,0.6025263726850925
9.942857142857143,0.598389843290569
10.057142857142857,0.6114359850026194
10.17142857142857,0.6336405083288498
10.285714285714285,0.6568727878751204
10.4,0.6739394774178611
10.514285714285714,0.6788797503605642
10.628571428571428,0.6674766796857368
10.742857142857142,0.6381082499263209
10.857142857142858,0.5922763162783768
10.971428571428572,0.5343040550203372
11.085714285714285,0.47033160821316045
11.2,0.4070120954930405
11.314285714285713,0.350170502425894
11.428571428571429,0.3036367367867685
11.542857142857143,0.26859049156675296
11.657142857142857,0.24370618927461202
11.77142857142857,0.22605006804601924
11.885714285714286,0.21234518642074168
12.0,0.20011665057028225
12.114285714285714,0.18832350205282455
12.228571428571428,0.1772839284571677
12.342857142857142,0.16798798280381794
12.457142857142857,0.16119232436852443
12.571428571428571,0.15680963590766683
12.685714285714285,0.15390441692580822
12.799999999999999,0.15120730470753166
12.914285714285715,0.14777189788152548
13.028571428571428,0.1434154414767275
13.142857142857142,0.13879609642483687
13.257142857142856,0.13514541744528463
13.371428571428572,0.13373818398250098
13.485714285714286,0.13526663150126894
13.6,0.13940873525942957
13.714285714285714,0.14486270737518372
13.828571428571427,0.1498664266048521
13.942857142857143,0.15291670877695343
14.057142857142857,0.15331355186411605
14.17142857142857,0.15131134020840206
14.285714285714285,0.1478744443184327
14.4,0.14416658146066294
14.514285714285714,0.14097642383400386
14.628571428571428,0.13833908254403798
14.742857142857142,0.13558113326684132
14.857142857142856,0.1318100386132272
14.971428571428572,0.12657042953660227
15.085714285714285,0.12023490751958589
15.2,0.11385092187925426
15.314285714285713,0.10854227045023952
15.428571428571429,0.1048802303399382
15.542857142857143,0.1026493046027486
15.657142857142857,0.10113097230727787
15.77142857142857,0.09965125171836293
15.885714285714284,0.09797119817953381
16.0,0.09626217160242755
16.114285714285714,0.09476131397957172
16.228571428571428,0.09345489860114503
16.34285714285714,0.09207486519483898
16.457142857142856,0.09037776483278287
16.57142857142857,0.08840680514953146
16.685714285714287,0.08647373916862783
16.8,0.08488340676716252
16.914285714285715,0.08365926206632204
17.02857142857143,0.08250076116765176
17.142857142857142,0.08098706837519315
17.257142857142856,0.0788577110444191
17.37142857142857,0.07617783623498084
17.485714285714284,0.07330273614493285
17.599999999999998,0.070690791965796
17.714285714285715,0.06868881164120531
17.82857142857143,0.06739890721540946
17.942857142857143,0.066668276788561
18.057142857142857,0.06618604092679958
18.17142857142857,0.0656483461077862
18.285714285714285,0.06493672499783802
18.4,0.0642274674169241
18.514285714285712,0.06394752283006898
18.628571428571426,0.064561785688259
18.742857142857144,0.06629513527851685
18.857142857142858,0.06896144539083843
18.97142857142857,0.07201035276247539
19.085714285714285,0.07474858039999228
19.2,0.07658132398791541
19.314285714285713,0.07714569172508902
19.428571428571427,0.07632723138501386
19.54285714285714,0.07423460969125147
19.657142857142855,0.07118782943609991
19.771428571428572,0.06769945756799242
19.885714285714286,0.06438990892880785
20.0,0.06182016971803224
20.114285714285714,0.06030879738743708
20.228571428571428,0.05984117362795648
20.34285714285714,0.06012672914517119
20.457142857142856,0.060752611761413194
20.57142857142857,0.0613215493487622
20.685714285714287,0.06150640663662731
20.8,0.06104948863268504
20.914285714285715,0.05977548054009803
21.02857142857143,0.05764256119962085
21.142857142857142,0.05479490118002468
21.257142857142856,0.05156810973607742
21.37142857142857,0.0484303494859903
21.485714285714284,0.04587585005401767
21.599999999999998,0.04430902360246098
21.714285714285715,0.043964416353626835
21.82857142857143,0.04488766231426286
21.942857142857143,0.046956718591930166
22.057142857142857,0.049890882739240534
22.17142857142857,0.0532203829420944
22.285714285714285,0.05626035284870642
22.4,0.05818157262895145
22.514285714285712,0.05823241111841415
22.628571428571426,0.0560489629245551
22.742857142857144,0.051882844940210796
22.857142857142858,0.04658232908049827
22.97142857142857,0.04129964218386351
23.085714285714285,0.037065473803571294
23.2,0.034443248732642644
23.314285714285713,0.033411509251434636
23.428571428571427,0.0334888786556892
23.54285714285714,0.03400400499745155
23.657142857142855,0.03437073756857091
23.771428571428572,0.03425630833048389
23.885714285714286,0.03360191673216255
24.0,0.032534215288860226
24.114285714285714,0.031252263093985246
24.228571428571428,0.029959949714426268
24.34285714285714,0.02885160180188965
24.457142857142856,0.0281061480929088
24.57142857142857,0.027853360183698973
24.685714285714283,0.028126280582220966
24.8,0.028840218966328934
24.914285714285715,0.029813140476283057
25.02857142857143,0.03080889592793819
25.142857142857142,0.031587902528480816
25.257142857142856,0.031969410890479034
25.37142857142857,0.03189919884332497
25.485714285714284,0.03148276959262772
25.599999999999998,0.030943135367758782
25.71428571428571,0.030517068693082686
25.82857142857143,0.03035943357121795
25.942857142857143,0.03051332796746629
26.057142857142857,0.030935453799058626
26.17142857142857,0.031523976661769405
26.285714285714285,0.032126516977793576
26.4,0.032558444613601425
26.514285714285712,0.03266086668056324
26.628571428571426,0.03237466349671648
26.742857142857144,0.031772148404211276
26.857142857142858,0.031016035889778158
26.97142857142857,0.030273997403579028
27.085714285714285,0.029644898084550994
27.2,0.029131709479047443
27.314285714285713,0.028659366141947012
27.428571428571427,0.02811822070216808
27.54285714285714,0.027415131750316728
27.657142857142855,0.02651620816123257
27.771428571428572,0.025464613209801527
27.885714285714286,0.02436505387658358
28.0,0.023344034390003376
28.114285714285714,0.022506288595857772
28.228571428571428,0.02190451555782015
28.34285714285714,0.021530440350940788
28.457142857142856,0.02132902377824208
28.57142857142857,0.021229806003447583
28.685714285714283,0.02117670989043023
28.8,0.02113442819697404
28.914285714285715,0.021070731370269963
29.02857142857143,0.020944114413354604
29.142857142857142,0.020726030734741028
29.257142857142856,0.02044459646908761
29.37142857142857,0.020196560644296896
29.485714285714284,0.020092266011019277
29.599999999999998,0.02016726481044425
29.71428571428571,0.02034042745285042
29.82857142857143,0.02046466865883691
29.942857142857143,0.02043301955521449
30.057142857142857,0.020254832941312785
30.17142857142857,0.0200482677130447
30.285714285714285,0.019965404665487588
30.4,0.02010618974006497
30.514285714285712,0.020466049924817792
30.628571428571426,0.020932700954415514
30.74285714285714,0.0213304408754921
30.857142857142858,0.021498406622785952
30.97142857142857,0.021369059389925723
31.085714285714285,0.02100010031530916
31.2,0.020533845414655826
31.314285714285713,0.020106104435764837
31.428571428571427,0.01976194956653824
31.54285714285714,0.01943094339030399
31.657142857142855,0.018977782150092496
31.77142857142857,0.018299532169691036
31.885714285714286,0.01740896405960804
32.0,0.01644670865923564
32.114285714285714,0.015611970489347583
32.22857142857143,0.01506136241953254
32.34285714285714,0.014844186692798968
32.457142857142856,0.014904409545261675
32.57142857142857,0.015128016746204264
32.68571428571428,0.015396602419784692
32.8,0.015622096773936693
32.91428571428571,0.015753957050153568
33.028571428571425,0.01576147116951531
33.14285714285714,0.015611075323946268
33.25714285714285,0.01527107686348377
33.371428571428574,0.014755589702891174
33.48571428571429,0.014171560381461808
33.6,0.013709914829419138
33.714285714285715,0.013561342544994238
33.82857142857143,0.013806444304547631
33.94285714285714,0.01435907464307434
34.05714285714286,0.0150031401945149
34.17142857142857,0.015496818632202536
34.285714285714285,0.01568054817875302
34.4,0.015534216100305209
34.51428571428571,0.015164263686437947
34.628571428571426,0.014737115860732853
34.74285714285714,0.014397388204087667
34.857142857142854,0.014210984472191199
34.97142857142857,0.014154730584091724
35.08571428571428,0.014148024884562228
35.199999999999996,0.014104477685379042
35.31428571428572,0.013978067657773333
35.42857142857143,0.013784750965404054
35.542857142857144,0.013593302211910116
35.65714285714286,0.01349393689240594
35.77142857142857,0.01356058926337017
35.885714285714286,0.013819616112608808
36.0,0.014233616120829485
36.114285714285714,0.014708797899147995
36.22857142857143,0.015128047603214265
36.34285714285714,0.01539576378967144
36.457142857142856,0.01547121048346147
36.57142857142857,0.015377072790089706
36.68571428571428,0.015185252221996612
36.8,0.014985585849377056
36.91428571428571,0.014843339794067316
37.028571428571425,0.014762488303756887
37.14285714285714,0.014681445081403798
37.25714285714285,0.014511840172400536
37.371428571428574,0.01419571987277003
37.48571428571429,0.013739258842229905
37.6,0.013202525898013188
37.714285714285715,0.012662163506818029
37.82857142857143,0.012178591400245586
37.94285714285714,0.011782759556720488
38.05714285714286,0.011476047487057068
38.17142857142857,0.011235234968602306
38.285714285714285,0.011025796106033388
38.4,0.010827521454990673
38.51428571428571,0.010660948515165157
38.628571428571426,0.01059118680185342
38.74285714285714,0.010696894468854579
38.857142857142854,0.011020356799718996
38.97142857142857,0.01153268736716179
39.08571428571428,0.01213617988378242
39.199999999999996,0.012694874022279555
39.31428571428571,0.01306800614725288
39.42857142857143,0.013136119269537547
39.542857142857144,0.01283183259502371
39.65714285714286,0.012180737793934407
39.77142857142857,0.011326990947994121
39.885714285714286,0.010506668573499633
40.0,0.009964291326781668
40.114285714285714,0.009854294341735893
40.22857142857143,0.01018267345108792
40.34285714285714,0.010815286078820199
40.457142857142856,0.011539241256365598
40.57142857142857,0.012142971697184517
40.68571428571428,0.012482780720821415
40.8,0.012516187187134539
40.91428571428571,0.012296107810132923
41.028571428571425,0.011933262258094657
41.14285714285714,0.011545062138720523
41.25714285714285,0.011212344837912438
41.371428571428574,0.010958621852869804
41.48571428571429,0.010755055866883509
41.6,0.010544902446380497
41.714285714285715,0.010276078714085663
41.82857142857143,0.009928930213452274
41.94285714285714,0.009527807580156816
42.05714285714286,0.009130737064189634
42.17142857142857,0.008801466202652833
42.285714285714285,0.008579076892438003
42.4,0.008464287704021183
42.51428571428571,0.00843145951490222
42.628571428571426,0.008455203035756571
42.74285714285714,0.00852766589305222
42.857142857142854,0.008651806123674742
42.97142857142857,0.008820077929426086
43.08571428571428,0.009002176139349873
43.199999999999996,0.009155070115607955
43.31428571428571,0.00924576755167328
43.42857142857143,0.009266282258529044
43.542857142857144,0.009230665133010211
43.65714285714286,0.009162843878057601
43.77142857142857,0.009091201064039106
43.885714285714286,0.009054185103629772
44.0,0.009104152216600565
44.114285714285714,0.009294042679799556
44.22857142857143,0.009647388161895318
44.34285714285714,0.010129970008081485
44.457142857142856,0.010644243137349855
44.57142857142857,0.011055700130638902
44.68571428571428,0.011244364198100328
44.8,0.011160813252463998
44.91428571428571,0.010857845659440748
45.028571428571425,0.010474255761653848
45.14285714285714,0.010171189204460654
45.25714285714285,0.010052266530297912
45.37142857142857,0.010113096450099408
45.48571428571429,0.010251017276223491
45.6,0.010330204945333911
45.714285714285715,0.0102633011297928
45.82857142857143,0.010060600504681624
45.94285714285714,0.009819203370883597
46.05714285714286,0.009663686262962625
46.17142857142857,0.009679326282435645
46.285714285714285,0.009877614418127862
46.4,0.010205081333013845
46.51428571428571,0.01057688146866409
46.628571428571426,0.01091072300905097
46.74285714285714,0.011151226858661795
46.857142857142854,0.011284766584298193
46.97142857142857,0.011339049356396288
47.08571428571428,0.011358474612950614
47.199999999999996,0.011363867441967834
47.31428571428571,0.01132803506390928
47.42857142857143,0.011193280916931924
47.542857142857144,0.01091985913142637
47.65714285714286,0.010523344606139164
47.77142857142857,0.01006910233805981
47.885714285714286,0.009632719955743907
48.0,0.009263737670803778
48.114285714285714,0.00898066157076557
48.22857142857143,0.008792523823665832
48.34285714285714,0.00871922766520571
48.457142857142856,0.008788719803150569
48.57142857142857,0.009016175881392913
48.68571428571428,0.009394482321369869
48.8,0.009926055357538318
48.91428571428571,0.010703115084618896
49.028571428571425,0.012010659832831758
49.14285714285714,0.014391211915392513
49.25714285714285,0.018576312371556148
49.37142857142857,0.025190606556236117
49.48571428571429,0.03424056100838676
49.6,0.04462616479911423
49.714285714285715,0.05409878312838303
49.82857142857143,0.05995814289292062
49.94285714285714,0.06027082222143793
50.05714285714286,0.05487915544456074
50.17142857142857,0.045492108426168035
50.285714285714285,0.03479144223067426
50.4,0.02518939867020287
50.51428571428571,0.018014059467398067
50.628571428571426,0.013440510649474453
50.74285714285714,0.010933103173259556
50.857142857142854,0.009761518979308893
50.97142857142857,0.009312608077268494
51.08571428571428,0.009173811725683208
51.199999999999996,0.009099323027135278
51.31428571428571,0.0089617081797001
51.42857142857142,0.00872422348305063
51.542857142857144,0.00842147030840968
51.65714285714286,0.008131306620523391
51.77142857142857,0.007938386534461708
51.885714285714286,0.007901000044955293
52.0,0.00802921251399673
52.114285714285714,0.008275709143771444
52.22857142857143,0.008543095992967483
52.34285714285714,0.008715601225340219
52.457142857142856,0.008712376493177264
52.57142857142857,0.00853584887114955
52.68571428571428,0.008278709922311611
52.8,0.00807707905239362
52.91428571428571,0.008038442491293431
53.028571428571425,0.008192654033865151
53.14285714285714,0.008494231345081116
53.25714285714285,0.008864086979318635
53.37142857142857,0.009233862554538303
53.48571428571429,0.009563594614791351
53.6,0.009831815968663282
53.714285714285715,0.010020195449936405
53.82857142857143,0.010114523117644204
53.94285714285714,0.010122816529392384
54.05714285714286,0.010088723884567895
54.17142857142857,0.010075582965040117
54.285714285714285,0.010120044167754827
54.4,0.010186774355322531
54.51428571428571,0.010166864942206807
54.628571428571426,0.009936151868607601
54.74285714285714,0.009443288243652937
54.857142857142854,0.008769155655007375
54.97142857142857,0.008113188519992494
55.08571428571428,0.007707984555294033
