Frequency,PSD
6.0,0.5016758078787343
6.08,0.5000173136821355
6.16,0.49687693875984273
6.24,0.49258135655464796
6.32,0.48755951989551427
6.4,0.4822830795167435
6.48,0.47720636688987406
6.5600000000000005,0.47271667107308957
6.640000000000001,0.4691025439827648
6.72,0.4665433110284723
6.8,0.46511802574786926
6.88,0.4648280420850396
6.96,0.4656251711637651
7.04,0.4674374826803236
7.12,0.4701869853375874
7.2,0.473796877210391
7.28,0.4781896759435483
7.36,0.4832802347633575
7.44,0.4889687065013298
7.5200000000000005,0.49513778951560816
7.6000000000000005,0.50165651231067
7.68,0.5083902195931482
7.76,0.5152142314423549
7.84,0.5220275467027136
7.92,0.5287631865988087
8.0,0.5353930646445005
8.08,0.5419270144983402
8.16,0.5484071234645543
8.24,0.5548993344668147
8.32,0.561484316161394
8.4,0.5682491649681601
8.48,0.5752810792535288
8.56,0.5826640943282412
8.64,0.5904802658284041
8.72,0.5988168747350887
8.8,0.6077805942168436
8.88,0.6175175633897454
8.96,0.6282350087261528
9.040000000000001,0.6402163278517105
9.120000000000001,0.6538189957687813
9.200000000000001,0.6694450401190376
9.28,0.6874783340562192
9.36,0.7081914327890111
9.44,0.7316353509073816
9.52,0.7575354069527118
9.6,0.785221467444751
9.68,0.8136188386469013
9.76,0.841315895661656
9.84,0.8667080908402908
9.92,0.888199313734914
10.0,0.9044258778567051
10.08,0.9144603568676517
10.16,0.9179546706682072
10.24,0.9151938425436933
10.32,0.9070504753327423
10.4,0.8948502291396665
10.48,0.8801752963728582
10.56,0.8646423639998082
10.64,0.849692504220668
10.72,0.8364239471268355
10.8,0.8254875506072334
10.88,0.8170523095084905
10.96,0.8108371935621794
11.040000000000001,0.8061975271526944
11.120000000000001,0.8022493221684063
11.200000000000001,0.7980129000466476
11.28,0.7925569942268538
11.36,0.7851257533339735
11.44,0.7752335426824696
11.52,0.76271633929872
11.6,0.7477339708838332
11.68,0.7307242235989544
11.76,0.7123171479251988
11.84,0.6932244626547079
11.92,0.6741233625334303
12.0,0.6555550989241947
12.08,0.6378558965263327
12.16,0.6211314392849897
12.24,0.6052775135218581
12.32,0.5900402500529212
12.4,0.5751017476795185
12.48,0.5601723576219871
12.56,0.5450704926675534
12.64,0.5297744542947052
12.72,0.5144374552440935
12.8,0.4993650915888016
12.88,0.484962105122519
12.96,0.4716607632054551
13.040000000000001,0.4598456122351484
13.120000000000001,0.4497885934047727
13.200000000000001,0.4416051400955816
13.280000000000001,0.4352369620956159
13.36,0.43046194080906347
13.44,0.4269269231851568
13.52,0.4241958973034955
13.6,0.4218043976007241
13.68,0.4193110672501609
13.76,0.4163389162164949
13.84,0.4126015817527401
13.92,0.4079132741426645
14.0,0.40218438994738337
14.08,0.39540728461895913
14.16,0.3876378467308603
14.24,0.3789780691208655
14.32,0.3695629786936755
14.4,0.35955270190408706
14.48,0.3491279834578378
14.56,0.3384859694938
14.64,0.3278330039858837
14.72,0.3173725464925687
14.8,0.30728857657051006
14.88,0.29772717145067923
14.96,0.2887804865914368
15.040000000000001,0.2804775770610023
15.120000000000001,0.2727852812257389
15.200000000000001,0.2656201295407119
15.280000000000001,0.2588696372685271
15.36,0.2524191481554652
15.44,0.2461791848141065
15.52,0.24010825332246943
15.6,0.23422710243954198
15.68,0.22862215286441812
15.76,0.22343770763116652
15.84,0.21885823216568664
15.92,0.21508323018922
16.0,0.21229799763682783
16.080000000000002,0.2106438797964843
16.16,0.21019167425916335
16.240000000000002,0.21092155430340231
16.32,0.2127123160355482
16.4,0.2153418410732895
16.48,0.21849942064752237
16.56,0.22180910329955927
16.64,0.2248617029160398
16.72,0.2272517964746262
16.8,0.22861520950037753
16.88,0.22866231737591905
16.96,0.2272030439425235
17.04,0.22416063503358633
17.12,0.21957291905274567
17.2,0.21358155508711799
17.28,0.20641140568391228
17.36,0.19834338786732975
17.44,0.18968476889661107
17.52,0.1807408150430409
17.6,0.17179102998280138
17.68,0.16307210417107076
17.76,0.15476838457218042
17.84,0.14700943571023872
17.92,0.13987333061260138
18.0,0.13339382415181084
18.080000000000002,0.1275695395865288
18.16,0.12237364298738541
18.240000000000002,0.11776301476080814
18.32,0.1136864629391687
18.400000000000002,0.11009191365575824
18.48,0.10693269306674083
18.56,0.1041729930781342
18.64,0.1017924523782989
18.72,0.09978956072790833
18.8,0.09818337481047525
18.88,0.09701287290564625
18.96,0.09633322953149502
19.04,0.09620842889160555
19.12,0.09670002878983247
19.2,0.09785257119106659
19.28,0.09967706221445416
19.36,0.1021349400081295
19.44,0.10512572428773514
19.52,0.1084817579938166
19.6,0.11197283935694934
19.68,0.11532202815294539
19.76,0.11823170226208948
19.84,0.1204165273130956
19.92,0.12163803573716299
20.0,0.12173461217581664
20.080000000000002,0.12064122098672928
20.16,0.11839515701489861
20.240000000000002,0.11512699479868924
20.32,0.11103899547369879
20.400000000000002,0.10637568274345192
20.48,0.10139249631622542
20.56,0.09632814060630909
20.64,0.09138467858238197
20.72,0.08671712966561271
20.8,0.0824320107199157
20.88,0.07859251709735482
20.96,0.07522722579923866
21.04,0.07233934448074031
21.12,0.06991438538660637
21.2,0.06792531985459474
21.28,0.06633536830509176
21.36,0.06509931380558878
21.44,0.06416447378387705
21.52,0.06347226938620738
21.6,0.06296085717712883
21.68,0.06256874084302237
21.76,0.06223884574290045
21.84,0.06192232997266244
21.92,0.06158144622174248
22.0,0.0611910049072122
22.080000000000002,0.06073831996254471
22.16,0.060221835899525816
22.240000000000002,0.05964885617314057
22.32,0.05903288086829392
22.400000000000002,0.05839102361084209
22.48,0.05774185156841606
22.56,0.057103827250370096
22.64,0.05649436837384704
22.72,0.0559294083335958
22.8,0.05542324603530089
22.88,0.05498842404639424
22.96,0.054635372921658716
23.04,0.0543716153205813
23.12,0.05420044275225816
23.2,0.054119155068203216
23.28,0.054117160794999605
23.36,0.0541744232576582
23.44,0.05426083673313285
23.52,0.054337068741434895
23.6,0.05435718179299584
23.68,0.05427297587758346
23.76,0.05403955350364766
23.84,0.05362122272193937
23.92,0.052996643811256516
24.0,0.05216217617413448
24.080000000000002,0.0511327044989313
24.16,0.049939744809345626
24.240000000000002,0.04862721383876728
24.32,0.047245728707191445
24.400000000000002,0.04584655694428402
24.48,0.0444763003324948
24.560000000000002,0.04317310029220749
24.64,0.041964703843218286
24.72,0.04086827018558243
24.8,0.039891458128418426
24.88,0.03903418930089087
24.96,0.03829053440578748
25.04,0.03765035984770833
25.12,0.037100607245736286
25.2,0.03662627054946814
25.28,0.03621123074734194
25.36,0.03583909855272027
25.44,0.03549413198833944
25.52,0.0351621886568902
25.6,0.03483158881139936
25.68,0.03449373352531259
25.76,0.03414334722611326
25.84,0.03377828189499378
25.92,0.033398908557286104
26.0,0.03300720722240817
26.080000000000002,0.032605730789496384
26.16,0.032196649082521345
26.240000000000002,0.031781069006900683
26.32,0.03135877440010755
26.400000000000002,0.030928440394020686
26.48,0.030488267064087894
26.560000000000002,0.030036869636589397
26.64,0.029574185986971226
26.72,0.02910214182882571
26.8,0.02862486286774832
26.88,0.028148335295552024
26.96,0.027679565133683345
27.04,0.02722543238866802
27.12,0.026791534001624765
27.2,0.02638132717492166
27.28,0.025995811205290167
27.36,0.025633838335663524
27.44,0.0252929633239724
27.52,0.02497058091859346
27.6,0.02466500995755279
27.68,0.024376192370344812
27.76,0.024105784900834787
27.84,0.023856599766761286
27.92,0.023631544573526755
28.0,0.023432362875628714
28.080000000000002,0.02325853915613109
28.16,0.023106687715269348
28.240000000000002,0.0229706094389007
28.32,0.022842017053060874
28.400000000000002,0.022711754944771963
28.48,0.022571224966726394
28.560000000000002,0.022413703664417153
28.64,0.022235297350400092
28.72,0.022035399842757722
28.8,0.02181664852439784
28.88,0.021584474577608002
28.96,0.02134638705269455
29.04,0.021111117320125727
29.12,0.020887702774772594
29.2,0.02068454034732512
29.28,0.020508421583062736
29.36,0.0203635848904522
29.44,0.02025087729610839
29.52,0.020167178917565743
29.6,0.020105272611645922
29.68,0.020054311432569943
29.76,0.020000941105289577
29.84,0.019930992761622163
29.92,0.019831512146652186
30.0,0.019692781834412844
30.080000000000002,0.019509959703315302
30.16,0.019284014306428992
30.240000000000002,0.019021772331774225
30.32,0.01873506866989678
30.400000000000002,0.0184391590615685
30.48,0.018150677528364266
30.560000000000002,0.01788547215052417
30.64,0.017656632473180094
30.72,0.01747294870053113
30.8,0.0173379457303537
30.88,0.01724954142494441
30.96,0.017200305525888637
31.04,0.01717824715965536
31.12,0.017168028393647707
31.2,0.017152478715126884
31.28,0.017114264305899553
31.36,0.017037548210835043
31.44,0.016909471747469845
31.52,0.01672130446032073
31.6,0.016469155037346
31.68,0.016154203798880575
31.76,0.01578249254831459
31.84,0.015364367794494594
31.92,0.014913699750047641
32.0,0.014446985053218158
32.08,0.013982395050847168
32.160000000000004,0.01353877660189622
32.24,0.01313457636041213
32.32,0.012786662979926616
32.4,0.012509068592364503
32.480000000000004,0.012311745449200426
32.56,0.012199505350424068
32.64,0.012171344960809967
32.72,0.012220336281141846
32.8,0.01233417576110927
32.88,0.012496357988482427
32.96,0.012687807339071553
33.04,0.01288870416797156
33.12,0.013080211434340279
33.2,0.013245852304848914
33.28,0.01337239409300627
33.36,0.013450224657253413
33.44,0.01347332287968879
33.52,0.013438991081529166
33.6,0.013347518757247916
33.68,0.013201891376234433
33.76,0.013007571894467745
33.84,0.012772301358604505
33.92,0.012505819411365129
34.0,0.012219411127127133
34.08,0.011925238865865603
34.160000000000004,0.011635494960672257
34.24,0.011361483039505972
34.32,0.011112775831491159
34.4,0.010896591384392348
34.480000000000004,0.010717480672535688
34.56,0.010577345291644816
34.64,0.010475729370928244
34.72,0.010410278054322044
34.800000000000004,0.0103772392794359
34.88,0.01037190629601514
34.96,0.010388943931714028
35.04,0.010422594244782115
35.12,0.010466799610492723
35.2,0.010515302311956059
35.28,0.010561776968806145
35.36,0.010600031212173532
35.44,0.010624280947383253
35.52,0.010629479421342517
35.6,0.010611660698847818
35.68,0.010568249715929685
35.76,0.01049829063228559
35.84,0.010402549407936387
35.92,0.010283453715854114
36.0,0.010144844881700824
36.08,0.009991536090553473
36.160000000000004,0.00982870143430328
36.24,0.009661160030345988
36.32,0.009492660565461223
36.4,0.00932530084190791
36.480000000000004,0.00915921956372557
36.56,0.008992663960493434
36.64,0.008822467721730353
36.72,0.008644882766231876
36.800000000000004,0.008456619381492666
36.88,0.008255888854711345
36.96,0.008043230973889107
37.04,0.007821951557305109
37.12,0.007598081267170114
37.2,0.007379871595270376
37.28,0.007176937280199106
37.36,0.006999212039464019
37.44,0.006855895217981578
37.52,0.006754535646450101
37.6,0.006700343224247363
37.68,0.006695761033877841
37.76,0.0067402900224084435
37.84,0.006830543463206377
37.92,0.0069605171469390575
38.0,0.007122082841386988
38.08,0.007305733824254151
38.160000000000004,0.007501622246748546
38.24,0.0077009248497145796
38.32,0.007897557290946116
38.4,0.008090229919272838
38.480000000000004,0.00828479663758968
38.56,0.008496783703346975
38.64,0.008753882454804782
38.72,0.00909803893915958
38.800000000000004,0.009586582261434346
38.88,0.010291641707074637
38.96,0.011296987127348852
39.04,0.01269149221113459
39.12,0.01455876902653616
39.2,0.016963209928595
39.28,0.01993365709665261
39.36,0.023447026909282704
39.44,0.02741514800566914
39.52,0.031678467451961845
39.6,0.036009827373319245
39.68,0.040130084534326566
39.76,0.043735091472961674
39.84,0.04653093882625283
39.92,0.048272047788314065
40.0,0.04879539642293465
40.08,0.0480443519427006
40.160000000000004,0.04607735262054888
40.24,0.04305966212545861
40.32,0.03923985832545039
40.4,0.03491572612251984
40.480000000000004,0.030396043991354788
40.56,0.025964997431528677
40.64,0.021854694796508384
40.72,0.018228979541737547
40.800000000000004,0.015179120902370528
40.88,0.012729697982521914
40.96,0.01085153561263151
41.04,0.009478065584770202
41.12,0.008521850109197638
41.2,0.007888907876156447
41.28,0.0074895681004854935
41.36,0.007245547426246932
41.44,0.007093626191404688
41.52,0.006986653290375925
41.6,0.006892688876811394
41.68,0.006793003352362067
41.76,0.006679490522798399
41.84,0.006551893721624936
41.92,0.006415119326184464
42.0,0.00627682511515871
42.08,0.0061454083452333825
42.160000000000004,0.006028465801302843
42.24,0.005931748047203469
42.32,0.005858583997563
42.4,0.005809716034840791
42.480000000000004,0.005783465785626678
42.56,0.0057761468752422045
42.64,0.005782648008871797
42.72,0.005797118629794042
42.800000000000004,0.005813692358017713
42.88,0.005827177971307225
42.96,0.005833638537136067
43.04,0.005830776470102531
43.12,0.005818056431413478
43.2,0.005796534688908062
43.28,0.005768419232629828
43.36,0.00573644641613932
43.44,0.005703208261172484
43.52,0.005670582082884009
43.6,0.005639391429342038
43.68,0.005609368074260008
43.76,0.0055794051968386
43.84,0.005548015591188664
43.92,0.005513858633975563
44.0,0.005476189887232636
44.08,0.005435118343306211
44.160000000000004,0.005391616284896577
44.24,0.005347295652364994
44.32,0.005304022497033874
44.4,0.005263473718586497
44.480000000000004,0.00522674375566883
44.56,0.0051940881884239305
44.64,0.005164856480247169
44.72,0.00513762782502686
44.800000000000004,0.005110529466473539
44.88,0.0050816887355777975
44.96,0.005049748285443495
45.04,0.005014358217167586
45.12,0.00497655061960694
45.2,0.004938905607630292
45.28,0.004905438180126936
45.36,0.004881174830328686
45.44,0.004871445272751377
45.52,0.0048809786879323944
45.6,0.004912950814006823
45.68,0.004968161519057542
45.76,0.0050445190277035885
45.84,0.005136961887292858
45.92,0.005237869305654312
46.0,0.005337911615708709
46.08,0.0054271990202297855
46.160000000000004,0.005496522465240029
46.24,0.005538462775877108
46.32,0.005548178182539802
46.4,0.005523757041153831
46.480000000000004,0.00546612108419867
46.56,0.005378558417352833
46.64,0.005266030516514258
46.72,0.005134419119528985
46.800000000000004,0.004989856299656703
46.88,0.0048382264992096954
46.96,0.004684863520437628
47.04,0.004534409877249949
47.12,0.004390775580810254
47.2,0.004257132686586347
47.28,0.00413590424865256
47.36,0.0040287382223891735
47.44,0.0039364838820433665
47.52,0.0038592006513176423
47.6,0.003796224697628931
47.68,0.003746302224526092
47.76,0.0037077790660282675
47.84,0.003678822531963666
47.92,0.0036576483318299935
48.0,0.003642732814065821
48.08,0.003633005049024033
48.160000000000004,0.003628029658809522
48.24,0.003628206003326046
48.32,0.0036350202848507707
48.4,0.003651392682776436
48.480000000000004,0.0036821583820226267
48.56,0.0037347027716928827
48.64,0.0038197285498358866
48.72,0.003952059599424719
48.800000000000004,0.004151285859327666
48.88,0.004441943004650246
48.96,0.004852836658199838
49.04,0.005415112526173261
49.120000000000005,0.006158790412821337
49.2,0.00710774952490955
49.28,0.008273559774275782
49.36,0.009649026931338803
49.44,0.011202733187723052
49.52,0.012876056994947233
49.6,0.014584015125979205
49.68,0.01622072822350093
49.76,0.017669426747155843
49.84,0.01881586891110355
49.92,0.019563104497270258
50.0,0.019844967705850806
50.08,0.019635716244204796
50.160000000000004,0.01895389394408425
50.24,0.017859638557994658
50.32,0.01644599608467129
50.4,0.014825990125099994
50.480000000000004,0.013117931605596631
50.56,0.011431583086590116
50.64,0.009857334529260412
50.72,0.008459682555043875
50.800000000000004,0.007275297964384857
50.88,0.006315078776041368
50.96,0.005569002809421245
51.04,0.00501238392008975
51.120000000000005,0.004612257959456592
51.2,0.004332963577336202
51.28,0.004140401162161245
51.36,0.004004833411517684
51.44,0.0039023626752301803
51.52,0.0038153637657661194
51.6,0.0037321859980669198
51.68,0.00364640405741707
51.76,0.0035558341242484734
51.84,0.003461468476430628
51.92,0.0033664322421473724
52.0,0.0032750312488056058
52.08,0.003191934799947581
52.160000000000004,0.003121516272259553
52.24,0.0030673556193864387
52.32,0.0030318929111512478
52.4,0.003016214216900069
52.480000000000004,0.0030199523169834475
52.56,0.0030412932219398957
52.64,0.0030770899885865146
52.72,0.003123090856249561
52.800000000000004,0.003174283701503919
52.88,0.0032253418705881134
52.96,0.003271131708949618
53.04,0.003307218139871476
53.120000000000005,0.0033302914658375283
53.2,0.0033384437155986385
53.28,0.003331248102229731
53.36,0.003309635197497637
53.44,0.0032756032745610408
53.52,0.003231834865771834
53.6,0.0031813063715082105
53.68,0.003126968267765759
53.76,0.0030715436269592995
53.84,0.0030174523179240663
53.92,0.002966830321885776
54.0,0.0029215894668534843
54.08,0.0028834587118602237
54.160000000000004,0.002853963296017203
54.24,0.002834326097413966
54.32,0.0028253067537554306
54.4,0.0028270190411588633
54.480000000000004,0.00283877925946859
54.56,0.0028590358497371246
54.64,0.002885415197941137
54.72,0.0029148953309613692
54.800000000000004,0.0029440937593925307
54.88,0.002969633356843357
54.96,0.002988534797980116
55.04,0.0029985779149019343
