Frequency,PSD
6.0,0.4349553873431844
6.08,0.43781642569261536
6.16,0.44179027275431715
6.24,0.44459453750822775
6.32,0.44506927538606356
6.4,0.4442041482711468
6.48,0.44482807040033356
6.5600000000000005,0.45006283231591754
6.640000000000001,0.4613983789083534
6.72,0.47749924469101557
6.8,0.49446415875848326
6.88,0.5074605922191343
6.96,0.5128981699835043
7.04,0.5100336630684209
7.12,0.5012660569677775
7.2,0.49110851534753663
7.28,0.48442926285707005
7.36,0.48473950586258274
7.44,0.49313404983784176
7.5200000000000005,0.5081708580786901
7.6000000000000005,0.5266337534781915
7.68,0.5448221985155289
7.76,0.5598698589582898
7.84,0.5706806425230468
7.92,0.5782620924512724
8.0,0.5853501894737424
8.08,0.5953045248688426
8.16,0.6105179291890719
8.24,0.6309900443647098
8.32,0.6538537969297141
8.4,0.6742200865316051
8.48,0.6869873784645528
8.56,0.6888319365125323
8.64,0.6796775499130191
8.72,0.6632274615212362
8.8,0.6463013341530411
8.88,0.6368809740381977
8.96,0.6412456046539483
9.040000000000001,0.6612848682322486
9.120000000000001,0.6934300779573457
9.200000000000001,0.7301175526835119
9.28,0.7634223766381392
9.36,0.7892468996773173
9.44,0.8099991411196582
9.52,0.834233446381822
9.6,0.8728784217297493
9.68,0.9331023926933611
9.76,1.0124065422614141
9.84,1.0965327341613553
9.92,1.1637866257541887
10.0,1.1947070423200057
10.08,1.1817217298107037
10.16,1.1325002723973807
10.24,1.0649025335755102
10.32,0.9974871324680714
10.4,0.942078807426422
10.48,0.902005763021954
10.56,0.8747106723622453
10.64,0.8551270218010348
10.72,0.8376091928318629
10.8,0.8167564075782592
10.88,0.7884350727346957
10.96,0.7513515910568598
11.040000000000001,0.7082335474740546
11.120000000000001,0.6654643056172833
11.200000000000001,0.6309511892551195
11.28,0.61115641477335
11.36,0.6086980817526624
11.44,0.6215566310396161
11.52,0.644097952832331
11.6,0.6693183609013725
11.68,0.6912144359081756
11.76,0.7061710499646485
11.84,0.7128468197443899
11.92,0.7109875579525343
12.0,0.7002780962786871
12.08,0.6801796478145632
12.16,0.6507994027477169
12.24,0.613971542174663
12.32,0.5736073234867227
12.4,0.5349974837824513
12.48,0.5035028490538505
12.56,0.4833416715932878
12.64,0.476864433286049
12.72,0.4841806042939094
12.8,0.502804445923129
12.88,0.5273682801844912
12.96,0.5500537204700593
13.040000000000001,0.5624319572067388
13.120000000000001,0.5584767249604903
13.200000000000001,0.5372663292507031
13.280000000000001,0.5035914214378041
13.36,0.46587093677915337
13.44,0.43253388306118756
13.52,0.40886792740133404
13.6,0.3957261863975934
13.68,0.3901924684894181
13.76,0.38740130521433297
13.84,0.38255021463024647
13.92,0.37241772883428625
14.0,0.35606551234378936
14.08,0.33474303518932935
14.16,0.3112625434421839
14.24,0.2891611523012241
14.32,0.2718298718010969
14.4,0.26166351008946404
14.48,0.25933528952102114
14.56,0.2634568207402909
14.64,0.2709195412717303
14.72,0.27797897035431013
14.8,0.2817212497597392
14.88,0.28121951005843404
14.96,0.27773075367750677
15.040000000000001,0.27376953140516497
15.120000000000001,0.2715622698938398
15.200000000000001,0.2717817232493617
15.280000000000001,0.27327162178987446
15.36,0.2738079172121564
15.44,0.2712954252131654
15.52,0.264645271586275
15.6,0.2539722488300782
15.68,0.24028774951386883
15.76,0.22508251414854985
15.84,0.210008436850099
15.92,0.19659184058531162
16.0,0.18587097046794798
16.080000000000002,0.1780499557144907
16.16,0.17242415439153674
16.240000000000002,0.16773832666583827
16.32,0.16285187528816658
16.4,0.1573534962159711
16.48,0.1517742804365865
16.56,0.14727759998920337
16.64,0.14499975745756077
16.72,0.14540567295229995
16.8,0.14800519599003076
16.88,0.15155815707799905
16.96,0.15461542446176357
17.04,0.15608454194327315
17.12,0.15556022210698717
17.2,0.15333871366050278
17.28,0.15018596189223463
17.36,0.14698426330770836
17.44,0.14438324611299258
17.52,0.14257464375060325
17.6,0.1412817712554375
17.68,0.13997829976098664
17.76,0.13824755367896926
17.84,0.13611167166799787
17.92,0.13413766142370895
18.0,0.13319322240708653
18.080000000000002,0.13389503343277934
18.16,0.13601692001973634
18.240000000000002,0.1382563324330615
18.32,0.13863149411425008
18.400000000000002,0.13539707425958336
18.48,0.1279698073057739
18.56,0.1172811123158063
18.64,0.10533128621332385
18.72,0.09424836158814448
18.8,0.08543836508433143
18.88,0.07926291964477075
18.96,0.0752792263258206
19.04,0.07276418654694994
19.12,0.07119424797971184
19.2,0.07049308122847914
19.28,0.07102757179798669
19.36,0.07343806743674491
19.44,0.07842096112435644
19.52,0.08654034101900569
19.6,0.09804271644427753
19.68,0.11257693404887681
19.76,0.1288208722334998
19.84,0.1442810010379925
19.92,0.15568160246167057
20.0,0.1600809515573346
20.080000000000002,0.1562335360249887
20.16,0.14532743190260383
20.240000000000002,0.13054017495213488
20.32,0.1156686283779171
20.400000000000002,0.10367615090850836
20.48,0.09589684373560546
20.56,0.09206798954223631
20.64,0.09088753417331882
20.72,0.09069942093039213
20.8,0.09006240544178643
20.88,0.08811279142722045
20.96,0.08469964580095352
21.04,0.08029977049876841
21.12,0.07575514503709763
21.2,0.0719168658644075
21.28,0.0693130414544061
21.36,0.06796822839143692
21.44,0.06745899610563834
21.52,0.06717841899470511
21.6,0.06665420408236576
21.68,0.06572689197719297
21.76,0.06450177203656846
21.84,0.06316466173657471
21.92,0.06184289397191957
22.0,0.06061543243075555
22.080000000000002,0.05960755080599142
22.16,0.05901320437810392
22.240000000000002,0.058964713079423005
22.32,0.059340299813095215
22.400000000000002,0.059696129663912655
22.48,0.05943138842144281
22.56,0.05810802203875007
22.64,0.05571534860907023
22.72,0.05270167904647654
22.8,0.049753553151639485
22.88,0.04746030293980571
22.96,0.04605599319443897
23.04,0.04536896160456948
23.12,0.04498451826781353
23.2,0.044511954346790346
23.28,0.04380174582893664
23.36,0.04300146817253263
23.44,0.042435997363379045
23.52,0.04238776877375016
23.6,0.04289374930048273
23.68,0.04366327569011627
23.76,0.04416803032655271
23.84,0.043874280679348426
23.92,0.04250463413313184
24.0,0.040184502267199336
24.080000000000002,0.037387875115078704
24.16,0.03472014830817647
24.240000000000002,0.0326718247248345
24.32,0.03147322180119027
24.400000000000002,0.031092270411560444
24.48,0.03132712520117564
24.560000000000002,0.031917103780211065
24.64,0.03262514078924579
24.72,0.033284474792894356
24.8,0.03381675090509773
24.88,0.03422249361657651
24.96,0.034543119129714694
25.04,0.034808520935123544
25.12,0.03500102980366491
25.2,0.03506137997313591
25.28,0.034932483735087616
25.36,0.03460801715635277
25.44,0.03415213572445857
25.52,0.033682436695150836
25.6,0.03333353953622981
25.68,0.033221929163294917
25.76,0.033418705248567306
25.84,0.03392650451960741
25.92,0.03466290084264598
26.0,0.03546648922058618
26.080000000000002,0.036142152025554944
26.16,0.03653805365523393
26.240000000000002,0.036616326140517866
26.32,0.03647422904355763
26.400000000000002,0.036301471058697625
26.48,0.0362940293526951
26.560000000000002,0.03655648860420643
26.64,0.0370223842790046
26.72,0.03742923483121477
26.8,0.037389602132401153
26.88,0.036561353997743636
26.96,0.034841651860192085
27.04,0.032461208847100555
27.12,0.02990272366482
27.2,0.02768345468213952
27.28,0.026129798549240704
27.36,0.02526538520722254
27.44,0.024854214620870858
27.52,0.024553940659066027
27.6,0.024089040141336344
27.68,0.02335828655173478
27.76,0.022434728143205726
27.84,0.021478219003746454
27.92,0.020627204151959982
28.0,0.01993697939479267
28.080000000000002,0.019386805631017197
28.16,0.018926243410643313
28.240000000000002,0.0185134425052775
28.32,0.018121524072742035
28.400000000000002,0.017724533208144246
28.48,0.017289512946802695
28.560000000000002,0.016788808221694748
28.64,0.01622384892160446
28.72,0.015639634352409486
28.8,0.015115830201422691
28.88,0.014737793754789777
28.96,0.014564807112935636
29.04,0.014614261150701826
29.12,0.014869746653150549
29.2,0.015304827833078976
29.28,0.01590217787716724
29.36,0.01664872488006177
29.44,0.01750462247895647
29.52,0.018367982239781776
29.6,0.019068750614037462
29.68,0.01940992650882837
29.76,0.019241044922961748
29.84,0.018524399820576912
29.92,0.01735870973684056
30.0,0.015951645562788164
30.080000000000002,0.014558645119754372
30.16,0.013414750055677386
30.240000000000002,0.012680702637162715
30.32,0.012414419958821431
30.400000000000002,0.012570485086262705
30.48,0.013024006462051999
30.560000000000002,0.01361031656941409
30.64,0.014168967588161767
30.72,0.014580695970248424
30.8,0.014790139227032857
30.88,0.014813157654430986
30.96,0.014731249558633357
31.04,0.014673895510976077
31.12,0.01478563017626697
31.2,0.015175699004950863
31.28,0.015859470270422713
31.36,0.01671789207980833
31.44,0.017509051341251518
31.52,0.017948353095747886
31.6,0.01783209340975179
31.68,0.017140382845455163
31.76,0.01605524464441386
31.84,0.014877770290565721
31.92,0.013891884014220411
32.0,0.013252958141453056
32.08,0.012956543038016499
32.160000000000004,0.012888735137100876
32.24,0.012915913858402201
32.32,0.012960828769335525
32.4,0.013029667017385577
32.480000000000004,0.013183782997214935
32.56,0.013476883124521537
32.64,0.013895260596505948
32.72,0.014337321437511411
32.8,0.014646155397057992
32.88,0.014676618264241298
32.96,0.01435863093287972
33.04,0.013725019682447362
33.12,0.01289681426383849
33.2,0.01204081307404197
33.28,0.01132126972799321
33.36,0.010862279807579821
33.44,0.010727272997083344
33.52,0.010912519313877687
33.6,0.01134812836461896
33.68,0.011905656291805004
33.76,0.012419589717859378
33.84,0.012727967009871222
33.92,0.012722561699642454
34.0,0.01238577599044852
34.08,0.011795334561985824
34.160000000000004,0.0110963411705297
34.24,0.01045538346593024
34.32,0.010012138979663486
34.4,0.009837889282195247
34.480000000000004,0.00991026740314909
34.56,0.010118013707966231
34.64,0.010303972495130327
34.72,0.010332850674851634
34.800000000000004,0.010148481726570683
34.88,0.009787339817446544
34.96,0.00934408075267041
35.04,0.00891652680729204
35.12,0.008564850593306118
35.2,0.008301275947648543
35.28,0.008104149331756249
35.36,0.00794210632816082
35.44,0.00779833959310044
35.52,0.007689006429371464
35.6,0.007668513536184956
35.68,0.007814056072906538
35.76,0.008189165622055
35.84,0.008799331190659457
35.92,0.00956310192147583
36.0,0.010320670317971844
36.08,0.01088595774728748
36.160000000000004,0.011123822704541885
36.24,0.011015366800592253
36.32,0.010675621176384462
36.4,0.010311036295158938
36.480000000000004,0.010134661503004416
36.56,0.010275761220233222
36.64,0.010720734745830445
36.72,0.011309682635242277
36.800000000000004,0.01179444144436595
36.88,0.011940181309098848
36.96,0.01162809425487335
37.04,0.010907298039571776
37.12,0.009965510535345301
37.2,0.009034045072894238
37.28,0.008282485392790025
37.36,0.007761692391706306
37.44,0.007418378723598518
37.52,0.007158291058419736
37.6,0.006911446601185837
37.68,0.0066637837637707024
37.76,0.00644954637107128
37.84,0.006322100523043135
37.92,0.006324261709129409
38.0,0.006468836300234208
38.08,0.006730508922211973
38.160000000000004,0.00704847208580436
38.24,0.0073408013292021014
38.32,0.007529383710416644
38.4,0.007567683492233402
38.480000000000004,0.007458720504085381
38.56,0.007252909601469343
38.64,0.007024969183455795
38.72,0.006840749648351855
38.800000000000004,0.006731291343400891
38.88,0.006687701014676029
38.96,0.006678167384232179
39.04,0.00667685736770297
39.12,0.006694346549198267
39.2,0.0068125540068313725
39.28,0.0072408751705771175
39.36,0.008401611094787667
39.44,0.01100594194051363
39.52,0.016011531930901934
39.6,0.02432372758967194
39.68,0.03620533903502422
39.76,0.05061749470126362
39.84,0.06496847025889661
39.92,0.07570419880199174
40.0,0.07968668153140024
40.08,0.07565986072761743
40.160000000000004,0.06487742714682677
40.24,0.05046839737324609
40.32,0.03597502518851062
40.4,0.02398737207044757
40.480000000000004,0.015562342725823424
40.56,0.010469111431099224
40.64,0.007828688424823638
40.72,0.006685756413547903
40.800000000000004,0.006305718185093318
40.88,0.006233368146454136
40.96,0.0062371862763148725
41.04,0.006232051338074182
41.12,0.006215605924277299
41.2,0.006220463358792201
41.28,0.006277626346270189
41.36,0.00639100946019054
41.44,0.006527893201118164
41.52,0.0066295704746090894
41.6,0.006638217179637559
41.68,0.00652518146226425
41.76,0.00630333949444105
41.84,0.006017312340452325
41.92,0.005721422621326399
42.0,0.005461275566823333
42.08,0.005266481883570933
42.160000000000004,0.005150365664802314
42.24,0.005110104193469431
42.32,0.005127294303625741
42.4,0.005173731456101457
42.480000000000004,0.005223523148061445
42.56,0.0052652043028405095
42.64,0.005305216414171437
42.72,0.0053595322280495985
42.800000000000004,0.0054381851478703825
42.88,0.00553201572751091
42.96,0.005610268196685562
43.04,0.005632718368840232
43.12,0.005572219184969743
43.2,0.005436034924642427
43.28,0.005272499171429146
43.36,0.005156478640072288
43.44,0.0051588881871799785
43.52,0.005313938991946226
43.6,0.005598570710275215
43.68,0.005933620868281918
43.76,0.006208776847556126
43.84,0.006323793489335988
43.92,0.006228870345602955
44.0,0.005944312018752109
44.08,0.0055491941727803555
44.160000000000004,0.0051461049705726425
44.24,0.004821408163932345
44.32,0.00461946026708212
44.4,0.00453819527821558
44.480000000000004,0.004542103960034211
44.56,0.004582996593718268
44.64,0.00461894763024336
44.72,0.004625035322710666
44.800000000000004,0.0045941646645822
44.88,0.00453090256692934
44.96,0.004443842862486384
45.04,0.004341181497637368
45.12,0.004230731710933768
45.2,0.004122167665730741
45.28,0.004028180964848801
45.36,0.003962835625834129
45.44,0.003938239050275839
45.52,0.003962540640539535
45.6,0.004041418128570944
45.68,0.004181369062820801
45.76,0.0043890409695365295
45.84,0.004661607194611341
45.92,0.004971387893846066
46.0,0.005258038738329704
46.08,0.005442294789622477
46.160000000000004,0.005460901101374859
46.24,0.005302820307135124
46.32,0.005020705351367781
46.4,0.004707214614271859
46.480000000000004,0.004450555195869765
46.56,0.004296443658677457
46.64,0.004235732025612872
46.72,0.004218465027367221
46.800000000000004,0.004181886600083378
46.88,0.004077998735699381
46.96,0.00389109965543131
47.04,0.0036412874728471416
47.12,0.0033745380451585556
47.2,0.003144072244168905
47.28,0.002990475598759687
47.36,0.002928013293924791
47.44,0.002941866043013972
47.52,0.002996890318859753
47.6,0.003054210606343831
47.68,0.003088739663096394
47.76,0.0031002399775254506
47.84,0.00311353135035412
47.92,0.003168290438377453
48.0,0.00330264248322552
48.08,0.0035359909769752153
48.160000000000004,0.003856305075216459
48.24,0.004216650008585319
48.32,0.00454432042924462
48.4,0.0047618419759067575
48.480000000000004,0.004813111850842169
48.56,0.004684021587237561
48.64,0.004408553674578094
48.72,0.00405784514340023
48.800000000000004,0.003716929834289232
48.88,0.0034582382395906795
48.96,0.0033216092321559747
49.04,0.003308512164082473
49.120000000000005,0.0033948128806296496
49.2,0.0035629902825361215
49.28,0.0038509855704428435
49.36,0.004407568821595698
49.44,0.005528875987247765
49.52,0.00763069972629888
49.6,0.011107075433257653
49.68,0.016071048431994216
49.76,0.02207705481360095
49.84,0.028023756265740177
49.92,0.032412887569667724
50.0,0.03393478343529172
50.08,0.03208338965999209
50.160000000000004,0.027413431811076014
50.24,0.02126539195209467
50.32,0.015144323421263269
50.4,0.010142379942077659
50.480000000000004,0.00669392997661257
50.56,0.004680386230771719
50.64,0.0037031096461040934
50.72,0.003330437161205395
50.800000000000004,0.0032310184034113967
50.88,0.00320627687407574
50.96,0.003170472939497595
51.04,0.0031145912037610322
51.120000000000005,0.0030693126098894387
51.2,0.003072368524039675
51.28,0.0031443775999602692
51.36,0.0032769082768074366
51.44,0.003433970830359536
51.52,0.003564673293994531
51.6,0.0036217951697675548
51.68,0.0035792019161498025
51.76,0.0034413583208069663
51.84,0.003241487498929921
51.92,0.0030299264047660337
52.0,0.0028580203004924514
52.08,0.0027635328746110095
52.160000000000004,0.002761661767199672
52.24,0.0028432610636847013
52.32,0.002979874007543173
52.4,0.0031335676942237465
52.480000000000004,0.0032682244199602924
52.56,0.0033585034476837743
52.64,0.0033937991161815412
52.72,0.0033767939197625312
52.800000000000004,0.003318353704632607
52.88,0.003231623117457413
52.96,0.0031282022331959383
53.04,0.0030181785781089807
53.120000000000005,0.002913338881548608
53.2,0.0028301247750679628
53.28,0.0027883771556198996
53.36,0.0028048964468275215
53.44,0.0028849468808802604
53.52,0.003016355471178577
53.6,0.0031691773184880324
53.68,0.0033015731169896327
53.76,0.003371126166589113
53.84,0.0033490740722105154
53.92,0.003232154376642442
54.0,0.0030456313661872663
54.08,0.002834695307233036
54.160000000000004,0.0026483557886720563
54.24,0.0025244330970189497
54.32,0.00248221839913256
54.4,0.0025230024147774904
54.480000000000004,0.0026340695273891174
54.56,0.0027925176253398225
54.64,0.0029691041568800165
54.72,0.003134147125123669
54.800000000000004,0.003265242465190842
54.88,0.0033531352514198746
54.96,0.0034017372630290067
55.04,0.0034217745250219797
