Frequency,PSD
6.0,0.5039654988917562
6.08,0.5082817442427541
6.16,0.5165724802038397
6.24,0.5281274655302869
6.32,0.5418516278871791
6.4,0.5563089062698775
6.48,0.569856379451446
6.5600000000000005,0.5808593634739461
6.640000000000001,0.5879417951450876
6.72,0.5902099352342824
6.8,0.5873938727366619
6.88,0.5798723243731765
6.96,0.5685727299879776
7.04,0.5547665911240214
7.12,0.5398075780510578
7.2,0.5248810482389606
7.28,0.5108366507782695
7.36,0.4981511369682163
7.44,0.48701968369487614
7.5200000000000005,0.47752062299999865
7.6000000000000005,0.46976761000028905
7.68,0.4639733072521216
7.76,0.4603966892084093
7.84,0.459208026494898
7.92,0.4603492598197679
8.0,0.4634700873069918
8.08,0.46798062463830736
8.16,0.4732009163174865
8.24,0.4785376375624829
8.32,0.4836049125203324
8.4,0.48823573450518515
8.48,0.4923867139359895
8.56,0.495991744640483
8.64,0.4988424331208973
8.72,0.5005551697831115
8.8,0.5006389651464292
8.88,0.4986307378441661
8.96,0.49423976863560015
9.040000000000001,0.4874494429237116
9.120000000000001,0.47855266897992965
9.200000000000001,0.4681274557340125
9.28,0.4569739860551355
9.36,0.44603029142490475
9.44,0.43627051039823006
9.52,0.4285831093529435
9.6,0.42363495595533784
9.68,0.4217458968650215
9.76,0.42281272880815557
9.84,0.4263175419928361
9.92,0.4314311316839952
10.0,0.43718859895882456
10.08,0.44268833141660013
10.16,0.4472592176463709
10.24,0.4505548369981446
10.32,0.4525586369626006
10.4,0.4535096289061519
10.48,0.4537767457619088
10.56,0.45371969848903826
10.64,0.45357502238337644
10.72,0.4533974228612464
10.8,0.4530681912778135
10.88,0.45235800830154416
10.96,0.4510103482767027
11.040000000000001,0.44880554509539616
11.120000000000001,0.4455801786713035
11.200000000000001,0.4412056155571184
11.28,0.4355567101203879
11.36,0.4285096410768082
11.44,0.4199904414717346
11.52,0.41006272779248387
11.6,0.3990142405380199
11.68,0.3873942173271886
11.76,0.3759713430205027
11.84,0.3656146984363178
11.92,0.35713080841773037
12.0,0.35110531028655645
12.08,0.34779411931959536
12.16,0.34709096049738214
12.24,0.3485743039002998
12.32,0.3516152860307665
12.4,0.35551498781594
12.48,0.3596371951407904
12.56,0.3635104054302082
12.64,0.3668856084127164
12.72,0.36974799972422095
12.8,0.3722872102475847
12.88,0.3748325309714062
12.96,0.3777613435295736
13.040000000000001,0.3813942602809324
13.120000000000001,0.38589833763231096
13.200000000000001,0.39122426106221075
13.280000000000001,0.39709821143093404
13.36,0.4030729721248527
13.44,0.40862196367027753
13.52,0.41324476596821236
13.6,0.41655131702638853
13.68,0.4183046190355643
13.76,0.41842087459851657
13.84,0.41694118640966976
13.92,0.4139936097656635
14.0,0.40975884892037007
14.08,0.40444327929437607
14.16,0.3982563036525114
14.24,0.39138890663448533
14.32,0.3839951783501116
14.4,0.3761836455560543
14.48,0.3680256970830279
14.56,0.359582721238788
14.64,0.35094459234676845
14.72,0.34226517789000094
14.8,0.33377985271281
14.88,0.3257958221654999
14.96,0.31865452823186946
15.040000000000001,0.3126719077440441
15.120000000000001,0.308065356400369
15.200000000000001,0.304878675101731
15.280000000000001,0.3029214850029904
15.36,0.301746608243159
15.44,0.3006906741188347
15.52,0.2989912897735039
15.6,0.295966818528377
15.68,0.29121198803480214
15.76,0.2847419990278881
15.84,0.27702462976272857
15.92,0.268875956482141
16.0,0.2612466323399684
16.080000000000002,0.2549690233741513
16.16,0.25055099979915363
16.240000000000002,0.2480833443183408
16.32,0.24728392236930774
16.4,0.2476523712856083
16.48,0.2486736145785579
16.56,0.24999813536680876
16.64,0.25154143570327714
16.72,0.2534757493200385
16.8,0.25612235816040185
16.88,0.2597830779120169
16.96,0.26456804244344356
17.04,0.2702795158429745
17.12,0.27639583399399653
17.2,0.2821675472507452
17.28,0.2867979242156141
17.36,0.2896469278229989
17.44,0.290386857963786
17.52,0.28905623632048233
17.6,0.28599948661155566
17.68,0.2817249768061131
17.76,0.27674217524283107
17.84,0.27143821826069636
17.92,0.26602829643438586
18.0,0.2605782509767712
18.080000000000002,0.25506969571336363
18.16,0.24946901982066116
18.240000000000002,0.24377163738481306
18.32,0.2380126986125592
18.400000000000002,0.23225354773973206
18.48,0.22656167498206858
18.56,0.22099948677383785
18.64,0.215627948766248
18.72,0.2105210112608747
18.8,0.20578047657188778
18.88,0.20154060984059613
18.96,0.197956497680329
19.04,0.19517712812636484
19.12,0.19331004241485533
19.2,0.19238689082132404
19.28,0.19233818948349715
19.36,0.19298283375317196
19.44,0.1940355219196378
19.52,0.19513360247766165
19.6,0.19588250901000398
19.68,0.1959143436989597
19.76,0.19494803815186768
19.84,0.19283537079394966
19.92,0.18957899747532758
20.0,0.1853176650642284
20.080000000000002,0.1802863140998083
20.16,0.17476817107582765
20.240000000000002,0.16905667831004498
20.32,0.16343664521466966
20.400000000000002,0.15818129017549148
20.48,0.1535522836329001
20.56,0.14978875966017105
20.64,0.14707867533084013
20.72,0.14551733079152035
20.8,0.14506723888592898
20.88,0.14553659424724819
20.96,0.1465894352770721
21.04,0.14779113330852944
21.12,0.14868145888086
21.2,0.14885796305122911
21.28,0.1480482216007412
21.36,0.14615259500113725
21.44,0.14324870120229383
21.52,0.13956077839303602
21.6,0.13540617324454085
21.68,0.1311338319709155
21.76,0.12706653122399938
21.84,0.12345368989781226
21.92,0.12043897310192433
22.0,0.11804722726603141
22.080000000000002,0.11619552091313405
22.16,0.1147293643194052
22.240000000000002,0.11347678272468015
22.32,0.11230367585179672
22.400000000000002,0.1111500314208747
22.48,0.11003220938622099
22.56,0.10901038728285167
22.64,0.10813587949168174
22.72,0.10740243722822528
22.8,0.10672395197933608
22.88,0.10594912713838603
22.96,0.10490753639223761
23.04,0.10346856635783318
23.12,0.10159040314013364
23.2,0.09934144796855388
23.28,0.09688808278923827
23.36,0.0944550984318949
23.44,0.09227337409856969
23.52,0.09053110795298328
23.6,0.0893407122895119
23.68,0.08872630831237584
23.76,0.08863002061705894
23.84,0.08893132953904012
23.92,0.0894730390351852
24.0,0.09008873380016644
24.080000000000002,0.09062807760833932
24.16,0.09097675511913014
24.240000000000002,0.09106756815064207
24.32,0.09087967950431791
24.400000000000002,0.09042569276701953
24.48,0.08973099686697797
24.560000000000002,0.08881429368195887
24.64,0.08767924580756883
24.72,0.08632290955911961
24.8,0.08475839040939201
24.88,0.0830411356058078
24.96,0.08128500773849613
25.04,0.07965778340313263
25.12,0.07835419890803177
25.2,0.07755374494407566
25.28,0.07737590838042184
25.36,0.07784576526165983
25.44,0.07887887512529738
25.52,0.08028883890834516
25.6,0.0818157320750812
25.68,0.0831696671369956
25.76,0.08408088748586963
25.84,0.08434612627514415
25.92,0.08386117954353445
26.0,0.08263251742146735
26.080000000000002,0.08076612856522475
26.16,0.07843806418217208
26.240000000000002,0.07585588635017096
26.32,0.07322152059181514
26.400000000000002,0.07070361779311612
26.48,0.0684229521367534
26.560000000000002,0.06644988687126974
26.64,0.06481023116714282
26.72,0.06349527838030772
26.8,0.062472735287714416
26.88,0.061696580576042506
26.96,0.061114962614570154
27.04,0.06067593097344241
27.12,0.06033121714372301
27.2,0.060038506896578296
27.28,0.059762654695992054
27.36,0.05947612168988739
27.44,0.05915876405297503
27.52,0.05879714994074459
27.6,0.05838380813038616
27.68,0.057916923726613376
27.76,0.05740071067640208
27.84,0.05684603502684311
27.92,0.05627024027320189
28.0,0.055695043534742014
28.080000000000002,0.055142053790047205
28.16,0.05462666579551853
28.240000000000002,0.054152218911262845
28.32,0.053706771546047735
28.400000000000002,0.05326430517234173
28.48,0.05279075602035239
28.560000000000002,0.05225352250290907
28.64,0.05163177673857926
28.72,0.05092463565824863
28.8,0.05015511497454968
28.88,0.04936925893747373
28.96,0.04863106380064135
29.04,0.048014236597153134
29.12,0.04759160312538517
29.2,0.0474228150600441
29.28,0.04754155155587935
29.36,0.047944615558236446
29.44,0.04858635225923096
29.52,0.04938159439359728
29.6,0.05021835603111467
29.68,0.0509782712150752
29.76,0.05155966448660926
29.84,0.05189663134253357
29.92,0.05196841385738401
30.0,0.051796406700906274
30.080000000000002,0.051430115859596316
30.16,0.050926786743094234
30.240000000000002,0.05033107136192507
30.32,0.04966067630865606
30.400000000000002,0.048901862581055264
30.48,0.048015788470307644
30.560000000000002,0.046953801263134254
30.64,0.04567746904464891
30.72,0.04417780983805761
30.8,0.04248816520493463
30.88,0.04068667418601277
30.96,0.03888712104746131
31.04,0.03722027478424919
31.12,0.03581054403200771
31.2,0.03475382006700239
31.28,0.03410145537094049
31.36,0.033852997112641996
31.44,0.0339577033625319
31.52,0.034323089007039356
31.6,0.03482822792265472
31.68,0.03533994306437686
31.76,0.035730540793691735
31.84,0.03589569581180642
31.92,0.035770369766368854
32.0,0.035339817787723916
32.08,0.03464264546111697
32.160000000000004,0.03376405393967546
32.24,0.03281969166647664
32.32,0.03193313658979609
32.4,0.031211989611278388
32.480000000000004,0.030728163025210087
32.56,0.030506986157596217
32.64,0.03052747862614119
32.72,0.03073314893118202
32.8,0.031049774409262515
32.88,0.03140470790738785
32.96,0.031742063800541884
33.04,0.03202985246371915
33.12,0.032258171706795465
33.2,0.0324307020630397
33.28,0.03255369194301168
33.36,0.03262667854630095
33.44,0.03263767118599618
33.52,0.032563459558583065
33.6,0.032374167027495855
33.68,0.03204058736064565
33.76,0.03154288744193687
33.84,0.030879258924093905
33.92,0.030072704403341637
34.0,0.029173646733159763
34.08,0.02825617840240555
34.160000000000004,0.02740707803772883
34.24,0.026709090300069883
34.32,0.026222518862707878
34.4,0.025970691419598686
34.480000000000004,0.025934366798725517
34.56,0.026057522134304185
34.64,0.026263037628822823
34.72,0.0264731714997349
34.800000000000004,0.026628018387252414
34.88,0.0266962228848593
34.96,0.026675622303079547
35.04,0.026585602292498976
35.12,0.02645580640136886
35.2,0.02631619999878926
35.28,0.026191471404524026
35.36,0.026099709652186144
35.44,0.026052993555039646
35.52,0.026057148567518687
35.6,0.026109479888551453
35.68,0.026195660355167967
35.76,0.026288580578167825
35.84,0.02635174513077956
35.92,0.026347701975075983
36.0,0.026249128234358165
36.08,0.026048188338640314
36.160000000000004,0.025759856910096968
36.24,0.025417184402255644
36.32,0.025059918991665812
36.4,0.024720808389943158
36.480000000000004,0.024414884775719754
36.56,0.024135658059657998
36.64,0.0238591313785047
36.72,0.023553369538178118
36.800000000000004,0.02318944236107083
36.88,0.0227496643235083
36.96,0.022230879278189595
37.04,0.021643021527758217
37.12,0.0210050580974613
37.2,0.0203408761643372
37.28,0.0196767345132835
37.36,0.01904027925372356
37.44,0.01845982685431939
37.52,0.017962355524393785
37.6,0.01756950280504251
37.68,0.01729230280163412
37.76,0.017126576548713076
37.84,0.017051149333864816
37.92,0.01703026275408944
38.0,0.017020092542034956
38.08,0.016977880934749258
38.160000000000004,0.016871424115158226
38.24,0.016686682480138035
38.32,0.01643185636045767
38.4,0.016137009832869816
38.480000000000004,0.015849026393610743
38.56,0.015622420240217358
38.64,0.015507481655991834
38.72,0.015538365770216628
38.800000000000004,0.015724616909060914
38.88,0.016049592924791946
38.96,0.016477815455227723
39.04,0.016970490346872456
39.12,0.017505091176175394
39.2,0.018092232671857084
39.28,0.018782340555535904
39.36,0.019656614755485788
39.44,0.02080139958364521
39.52,0.02227123954232801
39.6,0.024051635366903298
39.68,0.026035374863500306
39.76,0.028024260921079902
39.84,0.02976065627369021
39.92,0.03098255615493536
40.0,0.031486151202749356
40.08,0.031175743405632738
40.160000000000004,0.030084929249503473
40.24,0.028363693513865394
40.32,0.026238490571878787
40.4,0.02396076275738731
40.480000000000004,0.021760353737945888
40.56,0.01981470433032739
40.64,0.018236466715492953
40.72,0.01707557405523469
40.800000000000004,0.016329206221670535
40.88,0.01595415824866952
40.96,0.015878833206783814
41.04,0.016014397325193053
41.12,0.01626555700746604
41.2,0.016541107588980565
41.28,0.016763626795349006
41.36,0.01687716502109149
41.44,0.01685184125391972
41.52,0.016684786116951764
41.6,0.0163975505221126
41.68,0.016030607754747496
41.76,0.015635800706199035
41.84,0.015267622944021434
41.92,0.014974262501258545
42.0,0.01478948790230041
42.08,0.014726643179950758
42.160000000000004,0.014776030306783783
42.24,0.01490658738367132
42.32,0.01507196408929488
42.4,0.015220011375763126
42.480000000000004,0.015303672214299771
42.56,0.01529067119505771
42.64,0.015169543545110924
42.72,0.014950476688840447
42.800000000000004,0.01466091849116502
42.88,0.01433744741147153
42.96,0.01401644457271185
43.04,0.013726271294168153
43.12,0.013482903213946594
43.2,0.013289634828406094
43.28,0.013140085924419316
43.36,0.013022823490361863
43.44,0.012925740729378939
43.52,0.01283888073112703
43.6,0.01275535648489476
43.68,0.012670953728573442
43.76,0.012583488682804374
43.84,0.012492819655603882
43.92,0.012401696968150338
44.0,0.012316790324345215
44.08,0.012248760410740588
44.160000000000004,0.012210462410167846
44.24,0.012213227135434278
44.32,0.012262241272359775
44.4,0.012352776616915582
44.480000000000004,0.012468987264805656
44.56,0.012586160473849759
44.64,0.012676018278236457
44.72,0.012713483192589763
44.800000000000004,0.012682743120084952
44.88,0.012580694711930157
44.96,0.012416776301449198
45.04,0.012209434139940347
45.12,0.011980544777475347
45.2,0.011749687812297026
45.28,0.011530065525839697
45.36,0.011327156201405425
45.44,0.011140124924669198
45.52,0.01096499782390791
45.6,0.010798042556124108
45.68,0.010637930326923657
45.76,0.01048601020445409
45.84,0.010345019844086624
45.92,0.010217277968295581
46.0,0.010103500993372079
46.08,0.010002865653055111
46.160000000000004,0.009914148336316484
46.24,0.009837171586163764
46.32,0.00977367586888561
46.4,0.009727094805776007
46.480000000000004,0.00970127860615011
46.56,0.009698668809517315
46.64,0.009718601945530071
46.72,0.00975632886042856
46.800000000000004,0.00980310941578513
46.88,0.009847488397314221
46.96,0.009877599535013677
47.04,0.009884054492824805
47.12,0.009862677369550689
47.2,0.009816174964621619
47.28,0.009753972250427356
47.36,0.009689979538811191
47.44,0.009638859385308063
47.52,0.009612079644884825
47.6,0.009615278556484915
47.68,0.009648016706410821
47.76,0.009705973100627326
47.84,0.009784491360665497
47.92,0.009881646470613105
48.0,0.009999086894073037
48.08,0.010139862715670056
48.160000000000004,0.010303914246663562
48.24,0.01048321309017379
48.32,0.010659056400836257
48.4,0.010803375003256132
48.480000000000004,0.01088432362554387
48.56,0.01087456633721724
48.64,0.010759420464195538
48.72,0.010541986957218665
48.800000000000004,0.010243601540027335
48.88,0.009899810186479409
48.96,0.00955371437969232
49.04,0.009249198223064987
49.120000000000005,0.009026002808486871
49.2,0.008917216852013738
49.28,0.008948258313177361
49.36,0.009135590702031111
49.44,0.00948368108879963
49.52,0.009980001652949736
49.6,0.010589669868733761
49.68,0.011252771572600115
49.76,0.011887642486461542
49.84,0.01240188639729467
49.92,0.012709936805786392
50.0,0.012752682572172583
50.08,0.012512744760690558
50.160000000000004,0.012019702515974964
50.24,0.011342953063877264
50.32,0.010574509684189316
50.4,0.009807692017529861
50.480000000000004,0.009118648384176834
50.56,0.00855572658572416
50.64,0.008138105587981257
50.72,0.007861661155282298
50.800000000000004,0.007708158737563262
50.88,0.007653902043811434
50.96,0.007675358702540127
51.04,0.007751122547690085
51.120000000000005,0.007861103728391454
51.2,0.007984676894825906
51.28,0.008099582723799957
51.36,0.008182772254226823
51.44,0.008213349924523538
51.52,0.008176690551770505
51.6,0.008068123496534838
51.68,0.007894618857123411
51.76,0.007673678523581759
51.84,0.007429757644682152
51.92,0.007189453577211456
52.0,0.00697696276537014
52.08,0.0068108683079561635
52.160000000000004,0.006702523608111436
52.24,0.006655637150764547
52.32,0.006666474143037877
52.4,0.006724362080261339
52.480000000000004,0.006812622181849295
52.56,0.0069102917185944
52.64,0.006994868361761687
52.72,0.007045869278748747
52.800000000000004,0.007048506482387707
52.88,0.006996504252268403
52.96,0.00689317252581772
53.04,0.006750282926194415
53.120000000000005,0.006584921809502115
53.2,0.006415110814617011
53.28,0.0062553940808415896
53.36,0.0061136538144532845
53.44,0.005990083551804543
53.52,0.005878589279572129
53.6,0.0057700945399955786
53.68,0.00565657368818208
53.76,0.005534391446940529
53.84,0.005405811528111561
53.92,0.00527825401445563
54.0,0.00516173304327659
54.08,0.005065534072569501
54.160000000000004,0.004995351358630317
54.24,0.004951788605624271
54.32,0.004930528138846744
54.4,0.004923879943279624
54.480000000000004,0.004923050865377008
54.56,0.004920398485112578
54.64,0.004911091198468196
54.72,0.004893862424831523
54.800000000000004,0.004870813584391127
54.88,0.004846429613242933
54.96,0.004826108786891764
55.04,0.004814579354832545
