Frequency,PSD
6.057142857142857,0.4537544578104799
6.171428571428571,0.45920087615679733
6.285714285714286,0.46995382911084493
6.3999999999999995,0.4857448632459629
6.514285714285714,0.5061982147882174
6.628571428571428,0.5308592908040675
6.742857142857143,0.5592265337343375
6.857142857142857,0.5907823876305798
6.9714285714285715,0.6250196836779021
7.085714285714285,0.6614613529625761
7.2,0.6996733177653742
7.314285714285714,0.739271710447367
7.428571428571428,0.7799254263372482
7.542857142857143,0.8213534295161785
7.657142857142857,0.8633141941548194
7.771428571428571,0.9055837817632649
7.885714285714285,0.947920663654928
8.0,0.9900196733522455
8.114285714285714,1.0314630488583978
8.228571428571428,1.0716809356638677
8.342857142857143,1.1099345386650201
8.457142857142857,1.1453312126717794
8.571428571428571,1.176873087144661
8.685714285714285,1.2035320526744502
8.799999999999999,1.224337453480369
8.914285714285715,1.2384610832418186
9.028571428571428,1.2452874478223164
9.142857142857142,1.2444638430339705
9.257142857142856,1.2359313236631593
9.371428571428572,1.2199410212789568
9.485714285714286,1.197059086423802
9.6,1.1681587422071364
9.714285714285714,1.1343924439818796
9.828571428571427,1.097134440009207
9.942857142857143,1.057886563828741
10.057142857142857,1.018148066888367
10.17142857142857,0.9792614935180483
10.285714285714285,0.9422571976220827
10.4,0.9077251847901145
10.514285714285714,0.8757419756452228
10.628571428571428,0.8458717921732974
10.742857142857142,0.8172474777518163
10.857142857142858,0.7887206147619691
10.971428571428572,0.7590561977432866
11.085714285714285,0.727138260929364
11.2,0.6921510099229427
11.314285714285713,0.6537055287292077
11.428571428571429,0.6118936058186413
11.542857142857143,0.5672649111686353
11.657142857142857,0.5207382609065279
11.77142857142857,0.47346879576382644
11.885714285714286,0.4266983326976986
12.0,0.38161524099393945
12.114285714285714,0.33924392520098706
12.228571428571428,0.30037461230232093
12.342857142857142,0.2655343847878588
12.457142857142857,0.23499267500521454
12.571428571428571,0.2087901645806904
12.685714285714285,0.18677943371112143
12.799999999999999,0.16866796608047507
12.914285714285715,0.15405784358238658
13.028571428571428,0.14248021385633405
13.142857142857142,0.13342530352987336
13.257142857142856,0.12636988795858276
13.371428571428572,0.1208038081346561
13.485714285714286,0.11625586303246135
13.6,0.11231789222758351
13.714285714285714,0.10866472562613705
13.828571428571427,0.10506730789289445
13.942857142857143,0.10139680016859212
14.057142857142857,0.09761865241283676
14.17142857142857,0.09377719231343812
14.285714285714285,0.08997280974958072
14.4,0.08633499833196592
14.514285714285714,0.08299512512571035
14.628571428571428,0.08006274124143108
14.742857142857142,0.07760854540764853
14.857142857142856,0.07565589973426698
14.971428571428572,0.07418128517079578
15.085714285714285,0.07312254483652363
15.2,0.07239248667997142
15.314285714285713,0.07189465819149427
15.428571428571429,0.07153802404786658
15.542857142857143,0.07124788374672676
15.657142857142857,0.07097150501946282
15.77142857142857,0.0706783270463115
15.885714285714284,0.07035585051047127
16.0,0.07000316487613495
16.114285714285714,0.06962428634904257
16.228571428571428,0.06922309680066788
16.34285714285714,0.06880086227676088
16.457142857142856,0.06835635375586592
16.57142857142857,0.06788778633786481
16.685714285714287,0.06739534912181645
16.8,0.06688309517827734
16.914285714285715,0.06635933813366157
17.02857142857143,0.06583529605437322
17.142857142857142,0.06532233179916963
17.257142857142856,0.06482858321413273
17.37142857142857,0.06435594961449868
17.485714285714284,0.0638982879159142
17.599999999999998,0.06344133981274436
17.714285714285715,0.06296447727011314
17.82857142857143,0.06244394065621575
17.942857142857143,0.061856945198716436
18.057142857142857,0.061185891210090264
18.17142857142857,0.06042192933942422
18.285714285714285,0.05956727210347402
18.4,0.05863586487075678
18.514285714285712,0.05765229219502069
18.628571428571426,0.056649061063123965
18.742857142857144,0.05566263517928352
18.857142857142858,0.054728761812965425
18.97142857142857,0.05387771484326899
19.085714285714285,0.05313007418394056
19.2,0.052493592037794454
19.314285714285713,0.05196158680738947
19.428571428571427,0.05151317115446873
19.54285714285714,0.05111545438353424
19.657142857142855,0.05072763832463926
19.771428571428572,0.05030663710482893
19.885714285714286,0.049813520229122006
20.0,0.0492197823188588
20.114285714285714,0.0485122927062918
20.228571428571428,0.047695873815667415
20.34285714285714,0.046792835392190535
20.457142857142856,0.045839392888370044
20.57142857142857,0.04487957466809551
20.685714285714287,0.04395778436684739
20.8,0.043111467911446016
20.914285714285715,0.04236526081379215
21.02857142857143,0.041727593560933085
21.142857142857142,0.04119014030013639
21.257142857142856,0.04072988453161194
21.37142857142857,0.04031310697630037
21.485714285714284,0.039900373053623144
21.599999999999998,0.039451622124394424
21.714285714285715,0.03893067258936288
21.82857142857143,0.03830874766345875
21.942857142857143,0.03756688808488129
22.057142857142857,0.036697279817530334
22.17142857142857,0.03570357349589488
22.285714285714285,0.03460024729565221
22.4,0.033411034249557464
22.514285714285712,0.032166461779787305
22.628571428571426,0.030900662727801356
22.742857142857144,0.02964779013584651
22.857142857142858,0.028438535579611825
22.97142857142857,0.027297329555340824
23.085714285714285,0.026240729201710722
23.2,0.025277262325521
23.314285714285713,0.02440865042735029
23.428571428571427,0.02363198085060423
23.54285714285714,0.022942157378079645
23.657142857142855,0.022333917125823596
23.771428571428572,0.021802880843791568
23.885714285714286,0.02134544774773836
24.0,0.02095773991223866
24.114285714285714,0.020634112694662216
24.228571428571428,0.020365874802627568
24.34285714285714,0.02014076901831116
24.457142857142856,0.019943493467656715
24.57142857142857,0.019757193409167154
24.685714285714283,0.019565544870932573
24.8,0.019354881630868983
24.914285714285715,0.019115829558425498
25.02857142857143,0.018844086921268002
25.142857142857142,0.018540254927995218
25.257142857142856,0.018208886875100194
25.37142857142857,0.017857105364385038
25.485714285714284,0.017493189935811528
25.599999999999998,0.017125462831420822
25.71428571428571,0.016761638651021364
25.82857142857143,0.01640861615110164
25.942857142857143,0.016072539105155888
26.057142857142857,0.01575888158798667
26.17142857142857,0.015472336706302965
26.285714285714285,0.015216392990405558
26.4,0.01499263305038012
26.514285714285712,0.014799936713898149
26.628571428571426,0.014633868789341614
26.742857142857144,0.014486545941973367
26.857142857142858,0.014347196211684858
26.97142857142857,0.0142034633269557
27.085714285714285,0.014043305773883323
27.2,0.013857152978651158
27.314285714285713,0.013639864529921275
27.428571428571427,0.013392033824258246
27.54285714285714,0.013120295573295217
27.657142857142855,0.012836511999212827
27.771428571428572,0.012555969482461123
27.885714285714286,0.01229494579650065
28.0,0.012068145297547335
28.114285714285714,0.011886510357426182
28.228571428571428,0.011755804669139652
28.34285714285714,0.011676165893205158
28.457142857142856,0.011642600637843366
28.57142857142857,0.011646204237155632
28.685714285714283,0.011675774260608321
28.8,0.011719465626764885
28.914285714285715,0.011766194510425118
29.02857142857143,0.011806607057263906
29.142857142857142,0.011833550693078126
29.257142857142856,0.01184209035253998
29.37142857142857,0.01182918245192947
29.485714285714284,0.011793152945330763
29.599999999999998,0.011733128589981972
29.71428571428571,0.011648551617080893
29.82857142857143,0.011538874444228055
29.942857142857143,0.011403487072047545
30.057142857142857,0.011241878940501274
30.17142857142857,0.011053985201109607
30.285714285714285,0.01084062389701792
30.4,0.010603905990909993
30.514285714285712,0.010347502111913485
30.628571428571426,0.01007667908145257
30.74285714285714,0.009798068608877351
30.857142857142858,0.009519187271309362
30.97142857142857,0.009247776991290523
31.085714285714285,0.008991067749619962
31.2,0.008755073940021788
31.314285714285713,0.008544023372541525
31.428571428571427,0.008359989052421954
31.54285714285714,0.008202756850717289
31.657142857142855,0.008069925939185181
31.77142857142857,0.007957210730507808
31.885714285714286,0.007858897131014517
32.0,0.007768402141038483
32.114285714285714,0.00767889049529371
32.22857142857143,0.007583909404176557
32.34285714285714,0.007478007188824524
32.457142857142856,0.007357300718398508
32.57142857142857,0.007219950316270526
32.68571428571428,0.0070664923454012716
32.8,0.006899973953015617
32.91428571428571,0.006725836948560903
33.028571428571425,0.006551513348386633
33.14285714285714,0.006385726527620784
33.25714285714285,0.00623753817300102
33.371428571428574,0.00611523598559266
33.48571428571429,0.006025208380079097
33.6,0.005970984808112042
33.714285714285715,0.005952619456432916
33.82857142857143,0.00596655444444944
33.94285714285714,0.006006019976263507
34.05714285714286,0.006061928714915586
34.17142857142857,0.006124123367022545
34.285714285714285,0.0061827642799460545
34.4,0.0062296152488124056
34.51428571428571,0.006259006694521783
34.628571428571426,0.006268319793198633
34.74285714285714,0.006257927877445864
34.857142857142854,0.006230633097366255
34.97142857142857,0.006190727622896611
35.08571428571428,0.006142873308124137
35.199999999999996,0.006091020301275037
35.31428571428572,0.006037568611391235
35.42857142857143,0.005982920253142604
35.542857142857144,0.0059254852169479165
35.65714285714286,0.0058621112983910754
35.77142857142857,0.0057888274937175485
35.885714285714286,0.005701740952495968
36.0,0.005597916303987338
36.114285714285714,0.00547608958503782
36.22857142857143,0.005337114042992129
36.34285714285714,0.0051840863012916905
36.457142857142856,0.005022147434113207
36.57142857142857,0.004857990559182906
36.68571428571428,0.004699136811783939
36.8,0.004553068366801655
36.91428571428571,0.004426330173790328
37.028571428571425,0.004323725513275082
37.14285714285714,0.0042477258853089415
37.25714285714285,0.004198187272667957
37.371428571428574,0.004172414139701606
37.48571428571429,0.004165550094356642
37.6,0.004171216067492087
37.714285714285715,0.004182278822295112
37.82857142857143,0.004191623796364269
37.94285714285714,0.0041928262445612855
38.05714285714286,0.004180654151931413
38.17142857142857,0.004151381544314007
38.285714285714285,0.00410292844585974
38.4,0.004034865543543821
38.51428571428571,0.0039483259860174135
38.628571428571426,0.0038458577252045555
38.74285714285714,0.003731234445237609
38.857142857142854,0.003609228391728068
38.97142857142857,0.0034853390871244522
39.08571428571428,0.0033654699247907143
39.199999999999996,0.003255549707336181
39.31428571428571,0.003161106975866683
39.42857142857143,0.003086819694289594
39.542857142857144,0.0030360791579939293
39.65714285714286,0.0030106213326681723
39.77142857142857,0.0030102862519641987
39.885714285714286,0.0030329613517682784
40.0,0.003074744436515788
40.114285714285714,0.0031303276195612153
40.22857142857143,0.0031935619519363645
40.34285714285714,0.003258124654305732
40.457142857142856,0.003318188378985551
40.57142857142857,0.0033689919983469763
40.68571428571428,0.0034072349108311105
40.8,0.00343125428054954
40.91428571428571,0.003440985369489771
41.028571428571425,0.0034377383194396944
41.14285714285714,0.003423844328971892
41.25714285714285,0.003402230218963591
41.371428571428574,0.003375977359339916
41.48571428571429,0.003347914199831355
41.6,0.0033202842816243147
41.714285714285715,0.0032945232680156424
41.82857142857143,0.00327116679807432
41.94285714285714,0.003249894056117319
42.05714285714286,0.0032296910528115184
42.17142857142857,0.0032090973472720104
42.285714285714285,0.0031864865744235943
42.4,0.003160329564718515
42.51428571428571,0.00312939993438129
42.628571428571426,0.003092901906179478
42.74285714285714,0.00305052170862069
42.857142857142854,0.0030024199574347527
42.97142857142857,0.0029491885687605935
43.08571428571428,0.0028917920062534732
43.199999999999996,0.0028315029099201246
43.31428571428571,0.002769832019058164
43.42857142857143,0.002708446578672157
43.542857142857144,0.002649072220389301
43.65714285714286,0.002593379586248763
43.77142857142857,0.0025428653411200272
43.885714285714286,0.002498743600283698
44.0,0.0024618650517663175
44.114285714285714,0.002432676210392391
44.22857142857143,0.0024112218592121457
44.34285714285714,0.0023971833139924304
44.457142857142856,0.0023899377625667116
44.57142857142857,0.002388622526269583
44.68571428571428,0.0023921931090534875
44.8,0.0023994729201205164
44.91428571428571,0.002409201237106648
45.028571428571425,0.002420090008154167
45.14285714285714,0.0024308972744821636
45.25714285714285,0.002440516415481825
45.37142857142857,0.002448070040323111
45.48571428571429,0.002452990159284556
45.6,0.0024550658527560023
45.714285714285715,0.002454446447339804
45.82857142857143,0.00245159928544676
45.94285714285714,0.0024472317372427055
46.05714285714286,0.002442192864894348
46.17142857142857,0.0024373694358931605
46.285714285714285,0.0024335855074871225
46.4,0.002431508762884717
46.51428571428571,0.002431564769699444
46.628571428571426,0.002433865173561786
46.74285714285714,0.0024381674360400727
46.857142857142854,0.0024438996343641834
46.97142857142857,0.0024503015254394482
47.08571428571428,0.0024567530213316213
47.199999999999996,0.002463389503147051
47.31428571428571,0.0024721519589100075
47.42857142857143,0.0024885027390040724
47.542857142857144,0.0025241614241370202
47.65714285714286,0.0026013642821170035
47.77142857142857,0.00275926933799305
47.885714285714286,0.0030631076486325125
48.0,0.0036163590766631957
48.114285714285714,0.004575429563136903
48.22857142857143,0.00616490881933854
48.34285714285714,0.008689553130404575
48.457142857142856,0.012537033802572074
48.57142857142857,0.018163959975257323
48.68571428571428,0.026057769870013944
48.8,0.03666984735523765
48.91428571428571,0.05032124375743665
49.028571428571425,0.06709120991892635
49.14285714285714,0.08670850023899906
49.25714285714285,0.10847294277881056
49.37142857142857,0.13123644431211026
49.48571428571429,0.15346569010143693
49.6,0.17339297679815582
49.714285714285715,0.1892398470960606
49.82857142857143,0.19947640514191556
49.94285714285714,0.20306455382255578
50.05714285714286,0.1996317048848886
50.17142857142857,0.18953472397831445
50.285714285714285,0.17379892927172014
50.4,0.15394659520608456
50.51428571428571,0.13175468725368206
50.628571428571426,0.1089951242762639
50.74285714285714,0.0872095549704887
50.857142857142854,0.0675562777132889
50.97142857142857,0.0507452495042786
51.08571428571428,0.03705528195548613
51.199999999999996,0.026411489751799556
51.31428571428571,0.018493887451481446
51.42857142857142,0.012849478443758819
51.542857142857144,0.008987574343694116
51.65714285714286,0.006447807876612794
51.77142857142857,0.004839184556123189
51.885714285714286,0.0038546515986926794
52.0,0.003268548387519077
52.114285714285714,0.002924492057382622
52.22857142857143,0.0027197855001898424
52.34285714285714,0.0025903517608312386
52.457142857142856,0.002498244618943664
52.57142857142857,0.002422337509740573
52.68571428571428,0.002351928148761414
52.8,0.0022826140053014005
52.91428571428571,0.0022137319771447957
53.028571428571425,0.002146764047722358
53.14285714285714,0.002084281860733451
53.25714285714285,0.0020291734972429586
53.37142857142857,0.0019840338950139406
53.48571428571429,0.001950694169211796
53.6,0.0019299132103053269
53.714285714285715,0.0019212629124867992
53.82857142857143,0.0019232171749066647
53.94285714285714,0.0019334190794048018
54.05714285714286,0.0019490658455676713
54.17142857142857,0.0019673298795257694
54.285714285714285,0.001985733066573084
54.4,0.0020024097985340355
54.51428571428571,0.0020162253988195724
54.628571428571426,0.0020267508734301896
54.74285714285714,0.002034123102501038
54.857142857142854,0.002038835970435341
54.97142857142857,0.002041511437424907
55.08571428571428,0.002042693082788421
