Frequency,PSD
6.057142857142857,0.1487275016060972
6.171428571428571,0.14895146182408453
6.285714285714286,0.15250563287024485
6.3999999999999995,0.1630671244772769
6.514285714285714,0.18187898213943898
6.628571428571428,0.20660593055613713
6.742857142857143,0.23272285928032377
6.857142857142857,0.2561087522672594
6.9714285714285715,0.27487323045436624
7.085714285714285,0.28944622637890277
7.2,0.3014465231360411
7.314285714285714,0.31244118782701713
7.428571428571428,0.3232222118746178
7.542857142857143,0.33363087124510077
7.657142857142857,0.34287068964970197
7.771428571428571,0.35021906176439294
7.885714285714285,0.35579521977272344
8.0,0.36102475180257193
8.114285714285714,0.36866128206432425
8.228571428571428,0.38218703332775006
8.342857142857143,0.40446106957826955
8.457142857142857,0.43622237286610077
8.571428571428571,0.47568328542102134
8.685714285714285,0.5197720573229156
8.799999999999999,0.5662291826282231
8.914285714285715,0.6153617384854844
9.028571428571428,0.6708099554605861
9.142857142857142,0.7388395127412862
9.257142857142856,0.8256819354094374
9.371428571428572,0.9339877629420388
9.485714285714286,1.0615411071969316
9.6,1.2040381864295595
9.714285714285714,1.358732872565502
9.828571428571427,1.523544166338196
9.942857142857143,1.6911076462015089
10.057142857142857,1.8435426602520777
10.17142857142857,1.9534384309164188
10.285714285714285,1.991417934675199
10.4,1.9375297387213333
10.514285714285714,1.7925697115109656
10.628571428571428,1.5827683367895762
10.742857142857142,1.3515146242233633
10.857142857142858,1.1405232095623308
10.971428571428572,0.9727756974165227
11.085714285714285,0.8483209706643691
11.2,0.7528247767834657
11.314285714285713,0.6701138365846281
11.428571428571429,0.5904509039579732
11.542857142857143,0.5119125927666023
11.657142857142857,0.43708638709576575
11.77142857142857,0.36896495501994153
11.885714285714286,0.3087547437606946
12.0,0.2560429105065868
12.114285714285714,0.21020773489825295
12.228571428571428,0.17165977260597004
12.342857142857142,0.1419401978279355
12.457142857142857,0.1225073498828316
12.571428571428571,0.11306306036183589
12.685714285714285,0.11087326122796659
12.799999999999999,0.11190298199768774
12.914285714285715,0.11295218764151299
13.028571428571428,0.11295228222259347
13.142857142857142,0.11244937536706696
13.257142857142856,0.11217680559572979
13.371428571428572,0.11230492513993308
13.485714285714286,0.11278341871277041
13.6,0.11385175274293322
13.714285714285714,0.11589334070422763
13.828571428571427,0.1188408201819738
13.942857142857143,0.12183698003370295
14.057142857142857,0.12349203816446082
14.17142857142857,0.1225821962048211
14.285714285714285,0.11879539902989107
14.4,0.11304473420866658
14.514285714285714,0.10705548687613696
14.628571428571428,0.10246972395268625
14.742857142857142,0.10010389447602316
14.857142857142856,0.09980124231859176
14.971428571428572,0.10085280944296214
15.085714285714285,0.1026831381247233
15.2,0.10539513360853545
15.314285714285713,0.10976680049331275
15.428571428571429,0.11658411574381033
15.542857142857143,0.12575416106327023
15.657142857142857,0.13594661344674658
15.77142857142857,0.1451236475997164
15.885714285714284,0.15155590530049654
16.0,0.1546020273931959
16.114285714285714,0.15493181909491632
16.228571428571428,0.15432667618809975
16.34285714285714,0.15510288070906342
16.457142857142856,0.15903856621816143
16.57142857142857,0.1661465088411257
16.685714285714287,0.17427893262967076
16.8,0.180247667282992
16.914285714285715,0.18184088917178087
17.02857142857143,0.17918086054639623
17.142857142857142,0.1743775653988841
17.257142857142856,0.1698438626517318
17.37142857142857,0.1665811850163418
17.485714285714284,0.16362316379887232
17.599999999999998,0.15898304641498978
17.714285714285715,0.15140691349043145
17.82857142857143,0.14159368722771157
17.942857142857143,0.13196611882063972
18.057142857142857,0.1253359786387023
18.17142857142857,0.1235930808386549
18.285714285714285,0.12710864288298362
18.4,0.134714634917622
18.514285714285712,0.1439898400514297
18.628571428571426,0.15194587516802535
18.742857142857144,0.15614132292568444
18.857142857142858,0.1556818241847791
18.97142857142857,0.15138225966044325
19.085714285714285,0.14503741668725204
19.2,0.1385091372563514
19.314285714285713,0.13325754567852227
19.428571428571427,0.1302565404719377
19.54285714285714,0.12991386710322217
19.657142857142855,0.13192879376751523
19.771428571428572,0.13534052234414048
19.885714285714286,0.13891019028692173
20.0,0.14165384957943267
20.114285714285714,0.14317598203209428
20.228571428571428,0.14359253467432426
20.34285714285714,0.1431714298755377
20.457142857142856,0.14201841725482417
20.57142857142857,0.13996921548866265
20.685714285714287,0.1366056910375994
20.8,0.13138155545848346
20.914285714285715,0.12397461192379763
21.02857142857143,0.11472582590181753
21.142857142857142,0.10468549512269085
21.257142857142856,0.0950373780859812
21.37142857142857,0.08636285403609115
21.485714285714284,0.07845741449039273
21.599999999999998,0.07085468362876943
21.714285714285715,0.06348405261068503
21.82857142857143,0.05679821331827732
21.942857142857143,0.051309067809922684
22.057142857142857,0.04707484750777173
22.17142857142857,0.04366554830092477
22.285714285714285,0.04058657989408904
22.4,0.037684591414565434
22.514285714285712,0.035150553194337054
22.628571428571426,0.033209849134979486
22.742857142857144,0.031890775563346165
22.857142857142858,0.031083377552256524
22.97142857142857,0.03071987553586963
23.085714285714285,0.030808242769359756
23.2,0.03129246224509099
23.314285714285713,0.031929435043511624
23.428571428571427,0.03233149097414585
23.54285714285714,0.032159485316568974
23.657142857142855,0.0313383012495976
23.771428571428572,0.030132272801381452
23.885714285714286,0.028990366550214627
24.0,0.028258230552162502
24.114285714285714,0.027992706256352962
24.228571428571428,0.028022255723113527
24.34285714285714,0.02815956639231749
24.457142857142856,0.028355796692874965
24.57142857142857,0.028683799671561146
24.685714285714283,0.02919675885849097
24.8,0.029786583497431095
24.914285714285715,0.030164642090113433
25.02857142857143,0.030017641744078685
25.142857142857142,0.0292434253572716
25.257142857142856,0.02805947236931864
25.37142857142857,0.026870165793743017
25.485714285714284,0.0260119229298314
25.599999999999998,0.0255897083288634
25.71428571428571,0.025477715720119365
25.82857142857143,0.0254049171800021
25.942857142857143,0.025067725227586216
26.057142857142857,0.02428192975258349
26.17142857142857,0.02312392963188814
26.285714285714285,0.02191994372101491
26.4,0.02103724225699259
26.514285714285712,0.02064502360573251
26.628571428571426,0.02065948011536753
26.742857142857144,0.020895401846926565
26.857142857142858,0.02125128902461458
26.97142857142857,0.021764363045046663
27.085714285714285,0.022529203132633534
27.2,0.023584100711673155
27.314285714285713,0.024847053655963448
27.428571428571427,0.026111195677580648
27.54285714285714,0.027085302809065827
27.657142857142855,0.027478364038466742
27.771428571428572,0.02711644058796197
27.885714285714286,0.026038803386583778
28.0,0.024501566336508906
28.114285714285714,0.0228635241098228
28.228571428571428,0.021416473819508768
28.34285714285714,0.020271405817130567
28.457142857142856,0.019370776319475543
28.57142857142857,0.018602488221765478
28.685714285714283,0.017925165537591856
28.8,0.017418408779635866
28.914285714285715,0.017227196454305985
29.02857142857143,0.017438311997077224
29.142857142857142,0.01797557743801808
29.257142857142856,0.018595950915100492
29.37142857142857,0.01899838513119684
29.485714285714284,0.018972530654625914
29.599999999999998,0.018491513330330802
29.71428571428571,0.01770418688944467
29.82857142857143,0.01684970572503271
29.942857142857143,0.01614932804858472
30.057142857142857,0.01572128053191103
30.17142857142857,0.015542717694787128
30.285714285714285,0.015474750023034313
30.4,0.015352279736399469
30.514285714285712,0.01508924290138982
30.628571428571426,0.014713677226007221
30.74285714285714,0.014306440537882253
30.857142857142858,0.013919853759636112
30.97142857142857,0.013558748486914554
31.085714285714285,0.013213276462391114
31.2,0.012882133351918013
31.314285714285713,0.012573298922506205
31.428571428571427,0.012313520238376589
31.54285714285714,0.012161794909361114
31.657142857142855,0.012180414891736137
31.77142857142857,0.01236116351239218
31.885714285714286,0.012582865453766396
32.0,0.012665997753189773
32.114285714285714,0.012486742596732589
32.22857142857143,0.012050015691319787
32.34285714285714,0.01147628380778904
32.457142857142856,0.010942111609114695
32.57142857142857,0.010619058494282239
32.68571428571428,0.010612196103096654
32.8,0.010905488620068713
32.91428571428571,0.011363322248864936
33.028571428571425,0.011817347015805004
33.14285714285714,0.012179658036180482
33.25714285714285,0.012482883744697647
33.371428571428574,0.012819051477883814
33.48571428571429,0.01324354440457683
33.6,0.013718294250752112
33.714285714285715,0.014111939201163229
33.82857142857143,0.01424585917928917
33.94285714285714,0.013980029542481644
34.05714285714286,0.013309017646913673
34.17142857142857,0.012396797275433013
34.285714285714285,0.0115042889133762
34.4,0.010860452902232838
34.51428571428571,0.010579883179926024
34.628571428571426,0.010664738285987692
34.74285714285714,0.011034822539896154
34.857142857142854,0.011531931183661746
34.97142857142857,0.011926520040627319
35.08571428571428,0.011987595773224854
35.199999999999996,0.0116032656076447
35.31428571428572,0.010854336910024215
35.42857142857143,0.009968462469105528
35.542857142857144,0.009197069852223448
35.65714285714286,0.008717989446196922
35.77142857142857,0.008606641532971153
35.885714285714286,0.008838646598703235
36.0,0.009294093337022443
36.114285714285714,0.009788727294179065
36.22857142857143,0.010156606794045994
36.34285714285714,0.010344704620405107
36.457142857142856,0.010439594274802698
36.57142857142857,0.010590372872477074
36.68571428571428,0.010884232884039027
36.8,0.011277475171878265
36.91428571428571,0.01163235290972578
37.028571428571425,0.011813376095047982
37.14285714285714,0.011760063682416824
37.25714285714285,0.011500856320589331
37.371428571428574,0.011127863772721782
37.48571428571429,0.010756605168232984
37.6,0.010479448315207538
37.714285714285715,0.010327439315933986
37.82857142857143,0.010264384986012214
37.94285714285714,0.010218935339528161
38.05714285714286,0.01013173594095699
38.17142857142857,0.009988304496717176
38.285714285714285,0.00982215825070483
38.4,0.009687677537792353
38.51428571428571,0.009618059164852142
38.628571428571426,0.00960066582386304
38.74285714285714,0.009595457939366066
38.857142857142854,0.009581084394200096
38.97142857142857,0.009580411218850447
39.08571428571428,0.009639099655143951
39.199999999999996,0.00978321499774969
39.31428571428571,0.009998801321952711
39.42857142857143,0.010242698076236905
39.542857142857144,0.010460541269249257
39.65714285714286,0.010595506575408146
39.77142857142857,0.010598701006666725
39.885714285714286,0.010453491854532246
40.0,0.010197253086654898
40.114285714285714,0.009908605501120233
40.22857142857143,0.009656258571933612
40.34285714285714,0.009447892098977123
40.457142857142856,0.009223649039414548
40.57142857142857,0.008903118871052369
40.68571428571428,0.008455305082616996
40.8,0.007947985282306853
40.91428571428571,0.007545469499647163
41.028571428571425,0.007448325768526949
41.14285714285714,0.007796450333348966
41.25714285714285,0.008583192978088022
41.371428571428574,0.00963699569901976
41.48571428571429,0.010692652753516413
41.6,0.011505961699141733
41.714285714285715,0.01193036428425798
41.82857142857143,0.011921647979591356
41.94285714285714,0.011512155274722427
42.05714285714286,0.010803019653968385
42.17142857142857,0.009964118559325054
42.285714285714285,0.00920022727540365
42.4,0.008680307458225081
42.51428571428571,0.008475695448331738
42.628571428571426,0.008549072891533524
42.74285714285714,0.008791781917261203
42.857142857142854,0.009076933351948176
42.97142857142857,0.009303142817121093
43.08571428571428,0.009422205298047319
43.199999999999996,0.009446180521215864
43.31428571428571,0.00942627009609368
43.42857142857143,0.009409139991866215
43.542857142857144,0.009397479618812718
43.65714285714286,0.009345798086498849
43.77142857142857,0.00920067393652689
43.885714285714286,0.008957799453064607
44.0,0.008684765307101895
44.114285714285714,0.008481846555225598
44.22857142857143,0.008413336239764797
44.34285714285714,0.008472818370405564
44.457142857142856,0.008605246864602654
44.57142857142857,0.008747215538829924
44.68571428571428,0.00884196421686006
44.8,0.008834115213449189
44.91428571428571,0.008677858817321284
45.028571428571425,0.008366454768605465
45.14285714285714,0.007955244534857239
45.25714285714285,0.007552892858546643
45.37142857142857,0.0072824336698343855
45.48571428571429,0.007229177643744779
45.6,0.007395693694366798
45.714285714285715,0.007687172050696451
45.82857142857143,0.007943785429201208
45.94285714285714,0.008011472095135719
46.05714285714286,0.007816042278067706
46.17142857142857,0.007399139725426603
46.285714285714285,0.006893071737956847
46.4,0.006447671428782489
46.51428571428571,0.006156745000720836
46.628571428571426,0.006033338171047373
46.74285714285714,0.006041127714354641
46.857142857142854,0.006140381157880097
46.97142857142857,0.006303348027990364
47.08571428571428,0.0064995379932092125
47.199999999999996,0.0066900500826820915
47.31428571428571,0.006851994889106378
47.42857142857143,0.007003635886777237
47.542857142857144,0.007191217470153533
47.65714285714286,0.007447307353971538
47.77142857142857,0.007766678478331164
47.885714285714286,0.008115656038386411
48.0,0.008445520231927805
48.114285714285714,0.008692286668154744
48.22857142857143,0.008787091872721633
48.34285714285714,0.008695783938210015
48.457142857142856,0.008457803467903055
48.57142857142857,0.008180822498866099
48.68571428571428,0.00799192357525815
48.8,0.007985445455005959
48.91428571428571,0.008195419300347062
49.028571428571425,0.008589817207668925
49.14285714285714,0.00908526673052219
49.25714285714285,0.00960176464242999
49.37142857142857,0.010159663819875979
49.48571428571429,0.010953021086737378
49.6,0.012285490344087385
49.714285714285715,0.014320050662751124
49.82857142857143,0.016779641758128003
49.94285714285714,0.01889114183035043
50.05714285714286,0.01975550837480088
50.17142857142857,0.018934359951667375
50.285714285714285,0.016757521736848264
50.4,0.014073439991367443
50.51428571428571,0.011690574974331357
50.628571428571426,0.009992602892227413
50.74285714285714,0.008944842983775276
50.857142857142854,0.008331796900783181
50.97142857142857,0.007965355210911225
51.08571428571428,0.00775247658123324
51.199999999999996,0.007666022133869948
51.31428571428571,0.007695616668131421
51.42857142857142,0.007815444847001096
51.542857142857144,0.00797610466222816
51.65714285714286,0.00811908065277332
51.77142857142857,0.008199617666519905
51.885714285714286,0.00819635230074909
52.0,0.008103376564747333
52.114285714285714,0.007921381197404207
52.22857142857143,0.007661232024281437
52.34285714285714,0.007355643605395269
52.457142857142856,0.007064247547158516
52.57142857142857,0.006858022016358224
52.68571428571428,0.006781906235996917
52.8,0.006820024433998192
52.91428571428571,0.006901134940185418
53.028571428571425,0.006951975192491723
53.14285714285714,0.0069553109053834584
53.25714285714285,0.006960541487502736
53.37142857142857,0.007041662187502397
53.48571428571429,0.007241870873506395
53.6,0.0075426640689657595
53.714285714285715,0.00787062082110761
53.82857142857143,0.008137480069709845
53.94285714285714,0.008292825848777495
54.05714285714286,0.008352933834762427
54.17142857142857,0.008379361491254785
54.285714285714285,0.00842169002211378
54.4,0.008473043286567982
54.51428571428571,0.008477164505935633
54.628571428571426,0.008378917771879166
54.74285714285714,0.00817257537026584
54.857142857142854,0.00791044931271102
54.97142857142857,0.007673881859855578
55.08571428571428,0.0075354825475073845
