Frequency,PSD
6.057142857142857,0.23994067584382914
6.171428571428571,0.23787911646033566
6.285714285714286,0.2363692753725913
6.3999999999999995,0.23795866588591114
6.514285714285714,0.2427110580470757
6.628571428571428,0.2486506951504291
6.742857142857143,0.25423678500452385
6.857142857142857,0.25967263063888185
6.9714285714285715,0.26574889135635016
7.085714285714285,0.2725139442329747
7.2,0.2803570113522934
7.314285714285714,0.29258232099616777
7.428571428571428,0.31572068984620605
7.542857142857143,0.35548465743004853
7.657142857142857,0.41124673729327127
7.771428571428571,0.4748926701291569
7.885714285714285,0.5367275224677649
8.0,0.5939664220782743
8.114285714285714,0.6535182360049119
8.228571428571428,0.7252256808283003
8.342857142857143,0.8111858736252262
8.457142857142857,0.9016745850521956
8.571428571428571,0.9819244882211446
8.685714285714285,1.042209071056815
8.799999999999999,1.0805265111722167
8.914285714285715,1.0970996649205964
9.028571428571428,1.089675059300911
9.142857142857142,1.05585093259587
9.257142857142856,0.9991289443840566
9.371428571428572,0.9316454071624126
9.485714285714286,0.8705756317808815
9.6,0.8312759223176485
9.714285714285714,0.8234427722935218
9.828571428571427,0.853465836588675
9.942857142857143,0.928367154886134
10.057142857142857,1.0538027234799663
10.17142857142857,1.2259302048892486
10.285714285714285,1.4251987194128861
10.4,1.6179682131642947
10.514285714285714,1.7638457238998706
10.628571428571428,1.8252330798757121
10.742857142857142,1.7791802620347863
10.857142857142858,1.6285203256120133
10.971428571428572,1.4029444976443208
11.085714285714285,1.1460748481125496
11.2,0.89799996499205
11.314285714285713,0.6850652992264422
11.428571428571429,0.5184469894092385
11.542857142857143,0.39666275147985863
11.657142857142857,0.30991707260433804
11.77142857142857,0.24628232039717898
11.885714285714286,0.19726142934163216
12.0,0.159424197882376
12.114285714285714,0.1322634704920992
12.228571428571428,0.11540810102639257
12.342857142857142,0.10740247486924412
12.457142857142857,0.10583336147350166
12.571428571428571,0.10791414170585484
12.685714285714285,0.1112574915587211
12.799999999999999,0.1145737719206183
12.914285714285715,0.11767894429779793
13.028571428571428,0.12075039323001036
13.142857142857142,0.12373519043153366
13.257142857142856,0.12663827293172222
13.371428571428572,0.13010872793018463
13.485714285714286,0.13512774826566581
13.6,0.14176933054899069
13.714285714285714,0.14848718192036658
13.828571428571427,0.15301966204915574
13.942857142857143,0.15412645254154633
14.057142857142857,0.15240588444244973
14.17142857142857,0.14951763752942498
14.285714285714285,0.14677027871415826
14.4,0.14436907365928353
14.514285714285714,0.14166767269932554
14.628571428571428,0.1379152823387925
14.742857142857142,0.13294495871494363
14.857142857142856,0.12747421289919372
14.971428571428572,0.12282233637231353
15.085714285714285,0.12022099916880385
15.2,0.12034881559334656
15.314285714285713,0.1234619286703911
15.428571428571429,0.12959887042700957
15.542857142857143,0.13810771627464374
15.657142857142857,0.1468311636616074
15.77142857142857,0.152325428979614
15.885714285714284,0.15171216779961919
16.0,0.14475545950600538
16.114285714285714,0.13411809435624336
16.228571428571428,0.12354624508237745
16.34285714285714,0.11578151464413242
16.457142857142856,0.11181914115167188
16.57142857142857,0.11133439387729553
16.685714285714287,0.11323418993440557
16.8,0.11605511946282818
16.914285714285715,0.11857924777005549
17.02857142857143,0.1204972123472161
17.142857142857142,0.12238717228235194
17.257142857142856,0.12489334612657815
17.37142857142857,0.12798114919678646
17.485714285714284,0.13109425252457346
17.599999999999998,0.1339826160510871
17.714285714285715,0.1371471544242672
17.82857142857143,0.14119142495657303
17.942857142857143,0.14563382310244521
18.057142857142857,0.14854490950477087
18.17142857142857,0.1476213563702866
18.285714285714285,0.14177028799122843
18.4,0.13182000735722338
18.514285714285712,0.12000068063584175
18.628571428571426,0.10892138766449277
18.742857142857144,0.10077994953610157
18.857142857142858,0.09690200205150158
18.97142857142857,0.09740236930835187
19.085714285714285,0.10098347114635703
19.2,0.10511891171423911
19.314285714285713,0.1068290645796731
19.428571428571427,0.10394899800768045
19.54285714285714,0.09626206611896465
19.657142857142855,0.08562931428957007
19.771428571428572,0.07491020221178256
19.885714285714286,0.06651309862982371
20.0,0.06158209100496981
20.114285714285714,0.060030019921039623
20.228571428571428,0.06098373713370499
20.34285714285714,0.06328141652063342
20.457142857142856,0.06592241284437622
20.57142857142857,0.06835398884298462
20.685714285714287,0.07044841436375249
20.8,0.07225462329445083
20.914285714285715,0.07379738249358879
21.02857142857143,0.07503121738371239
21.142857142857142,0.07583186131019984
21.257142857142856,0.07599737357097819
21.37142857142857,0.0753826849031494
21.485714285714284,0.07412105537552441
21.599999999999998,0.07265303488478127
21.714285714285715,0.0714455154544085
21.82857142857143,0.07064635957749739
21.942857142857143,0.06997251114194145
22.057142857142857,0.06888192629688408
22.17142857142857,0.06689013613204552
22.285714285714285,0.06384558072258772
22.4,0.059999256282245526
22.514285714285712,0.055832974275748924
22.628571428571426,0.05179393219182358
22.742857142857144,0.0481316187606333
22.857142857142858,0.044904650694783846
22.97142857142857,0.042073010090776825
23.085714285714285,0.039571507345862865
23.2,0.03736552733158145
23.314285714285713,0.03552982795436462
23.428571428571427,0.03427889443258774
23.54285714285714,0.03383692243338349
23.657142857142855,0.03421254670890797
23.771428571428572,0.03508157572236701
23.885714285714286,0.035871823952406914
24.0,0.03598826099147713
24.114285714285714,0.03508699515260258
24.228571428571428,0.03327352732120121
24.34285714285714,0.03105101801261431
24.457142857142856,0.028991360082423114
24.57142857142857,0.027387728035499215
24.685714285714283,0.026195902477387442
24.8,0.025279546432763797
24.914285714285715,0.024679015509326815
25.02857142857143,0.024622827125164122
25.142857142857142,0.025263966494253484
25.257142857142856,0.026414660132996936
25.37142857142857,0.027595327869095403
25.485714285714284,0.028395982935263443
25.599999999999998,0.028773710963295618
25.71428571428571,0.02895861673483647
25.82857142857143,0.02910556104405914
25.942857142857143,0.02912142158933933
26.057142857142857,0.028846304334689755
26.17142857142857,0.028331275806444067
26.285714285714285,0.02786973096231576
26.4,0.027733827389680717
26.514285714285712,0.027886773667186233
26.628571428571426,0.027984095175424134
26.742857142857144,0.02768332712957265
26.857142857142858,0.026932754131264183
26.97142857142857,0.025943134565187858
27.085714285714285,0.024947812018574347
27.2,0.024069547691959025
27.314285714285713,0.02337133507078578
27.428571428571427,0.022904843879651693
27.54285714285714,0.02266256239641582
27.657142857142855,0.022542722814420393
27.771428571428572,0.02240149675208096
27.885714285714286,0.02211738836691896
28.0,0.021612412155419727
28.114285714285714,0.020894785220338077
28.228571428571428,0.020152040444331828
28.34285714285714,0.019766200973293575
28.457142857142856,0.020119029903882934
28.57142857142857,0.021268899843865388
28.685714285714283,0.022772980798006236
28.8,0.02387605372975906
28.914285714285715,0.02399300677584241
29.02857142857143,0.0231109710593241
29.142857142857142,0.0217562346666629
29.257142857142856,0.02056068569228955
29.37142857142857,0.019821894818262263
29.485714285714284,0.01940019007271307
29.599999999999998,0.01895372357489713
29.71428571428571,0.018255417006383483
29.82857142857143,0.01733921362506166
29.942857142857143,0.016415348761460884
30.057142857142857,0.015698321619013064
30.17142857142857,0.015325342146799373
30.285714285714285,0.015389269919414729
30.4,0.015967971599455292
30.514285714285712,0.017067585651930648
30.628571428571426,0.018535921554639453
30.74285714285714,0.020063575746985474
30.857142857142858,0.021311751864428307
30.97142857142857,0.022079355266814097
31.085714285714285,0.022379897391694985
31.2,0.022378093453620882
31.314285714285713,0.02225117857537547
31.428571428571427,0.022088493973361642
31.54285714285714,0.021892771643295256
31.657142857142855,0.021642701592512498
31.77142857142857,0.02132406781683996
31.885714285714286,0.02090373377260364
32.0,0.02031551826328345
32.114285714285714,0.019509202362846284
32.22857142857143,0.018519650284180594
32.34285714285714,0.01748577516131301
32.457142857142856,0.01660170069154325
32.57142857142857,0.016028580829745724
32.68571428571428,0.01581673722297975
32.8,0.015893113711788878
32.91428571428571,0.016126303919476254
33.028571428571425,0.016411013694851588
33.14285714285714,0.016702263205847282
33.25714285714285,0.016990972170681944
33.371428571428574,0.017264227045418717
33.48571428571429,0.01748530019001919
33.6,0.017599058332347508
33.714285714285715,0.01755718168843559
33.82857142857143,0.017344510390054142
33.94285714285714,0.01697077509453957
34.05714285714286,0.016423906477920563
34.17142857142857,0.015647983450091787
34.285714285714285,0.014602868753230233
34.4,0.01336306702476769
34.51428571428571,0.012147410007880527
34.628571428571426,0.011230156300299648
34.74285714285714,0.010801139545415134
34.857142857142854,0.010887072182997587
34.97142857142857,0.011375838294135873
35.08571428571428,0.012087862634094853
35.199999999999996,0.01282341611416645
35.31428571428572,0.013382125991613291
35.42857142857143,0.013601556810868193
35.542857142857144,0.013429082094564122
35.65714285714286,0.012970010634278037
35.77142857142857,0.012441093932448119
35.885714285714286,0.012033626217389227
36.0,0.011783150668222659
36.114285714285714,0.011557131110780338
36.22857142857143,0.011181948451819163
36.34285714285714,0.010606456322426946
36.457142857142856,0.009958048773793457
36.57142857142857,0.009443322545042585
36.68571428571428,0.009193514795608513
36.8,0.009202490680715453
36.91428571428571,0.009396822441778481
37.028571428571425,0.009728870803340542
37.14285714285714,0.010169225698268088
37.25714285714285,0.010617902579078468
37.371428571428574,0.010874191626006762
37.48571428571429,0.010743150168018282
37.6,0.010188506491385434
37.714285714285715,0.00937866688416978
37.82857142857143,0.008585334867071326
37.94285714285714,0.00803583606740248
38.05714285714286,0.00783399788515209
38.17142857142857,0.007974743525752203
38.285714285714285,0.0084076234977265
38.4,0.009093326648107206
38.51428571428571,0.010007562077319213
38.628571428571426,0.011080805628167704
38.74285714285714,0.01213397140559874
38.857142857142854,0.012908695612747984
38.97142857142857,0.013214002059127984
39.08571428571428,0.013075771089109194
39.199999999999996,0.01273957675811682
39.31428571428571,0.012501055961321035
39.42857142857143,0.01250141478091493
39.542857142857144,0.012659995585106632
39.65714285714286,0.012783321630077369
39.77142857142857,0.012728243814604766
39.885714285714286,0.012473863669876118
40.0,0.012081684971483726
40.114285714285714,0.011635798271837068
40.22857142857143,0.011226235044997212
40.34285714285714,0.010937930204223218
40.457142857142856,0.010797985725064607
40.57142857142857,0.010725899287671295
40.68571428571428,0.010569189323304994
40.8,0.0102174179303108
40.91428571428571,0.009690439810465365
41.028571428571425,0.009117400350616919
41.14285714285714,0.008630581385280804
41.25714285714285,0.008272508009520323
41.371428571428574,0.007989669362937563
41.48571428571429,0.0077000161908904845
41.6,0.007364194294230538
41.714285714285715,0.007008954763437649
41.82857142857143,0.0067056937459677255
41.94285714285714,0.006534836365822712
42.05714285714286,0.006558657079483209
42.17142857142857,0.006808271745195025
42.285714285714285,0.007277776019994839
42.4,0.007914933243483132
42.51428571428571,0.00861296407429792
42.628571428571426,0.009228837663251674
42.74285714285714,0.009643371359987354
42.857142857142854,0.009830387514844217
42.97142857142857,0.009871501679104572
43.08571428571428,0.009894467107444379
43.199999999999996,0.009986952252110002
43.31428571428571,0.01015445373442817
43.42857142857143,0.01034358987418854
43.542857142857144,0.0105031328843817
43.65714285714286,0.010631667845200156
43.77142857142857,0.010768244295248582
43.885714285714286,0.010935321089131395
44.0,0.011095505879030155
44.114285714285714,0.011160991578700218
44.22857142857143,0.011034205862342376
44.34285714285714,0.010652528987400657
44.457142857142856,0.01003432961490998
44.57142857142857,0.009302125610724328
44.68571428571428,0.008636581987589913
44.8,0.008172608336417008
44.91428571428571,0.00792589218401895
45.028571428571425,0.00781934536879639
45.14285714285714,0.007777277099042019
45.25714285714285,0.007786966647399932
45.37142857142857,0.00786614277088075
45.48571428571429,0.007983562737475256
45.6,0.008040589907718748
45.714285714285715,0.00795261469296487
45.82857142857143,0.007743751409930792
45.94285714285714,0.0075439760472710525
46.05714285714286,0.007486894336706727
46.17142857142857,0.007612744838972948
46.285714285714285,0.007863512163100949
46.4,0.00815021878130603
46.51428571428571,0.008407040916715947
46.628571428571426,0.008588600596618949
46.74285714285714,0.008646463246927331
46.857142857142854,0.008534676396614805
46.97142857142857,0.008243785743294488
47.08571428571428,0.007830740987140752
47.199999999999996,0.007422078874408125
47.31428571428571,0.0071776812407860855
47.42857142857143,0.007214035146708189
47.542857142857144,0.007525261727237604
47.65714285714286,0.007963879994416813
47.77142857142857,0.008303191446971338
47.885714285714286,0.008344048257977776
48.0,0.008009547165240403
48.114285714285714,0.007381209337354824
48.22857142857143,0.006654293193732491
48.34285714285714,0.006038607384995934
48.457142857142856,0.005672119513415625
48.57142857142857,0.005595113550327526
48.68571428571428,0.005775617064293597
48.8,0.006150514942165126
48.91428571428571,0.00666136921640412
49.028571428571425,0.0072860066943678916
49.14285714285714,0.008095359516218667
49.25714285714285,0.009403295424362978
49.37142857142857,0.012053632377425717
49.48571428571429,0.017683669562862953
49.6,0.02843790716645027
49.714285714285715,0.04552793505103626
49.82857142857143,0.06698192551204168
49.94285714285714,0.08663167321380665
50.05714285714286,0.09656989970600154
50.17142857142857,0.09223685846194547
50.285714285714285,0.07578305136419788
50.4,0.05438923542931098
50.51428571428571,0.03528559281731417
50.628571428571426,0.022068930492132863
50.74285714285714,0.014579366883495107
50.857142857142854,0.010905817626484945
50.97142857142857,0.009187182332004641
51.08571428571428,0.008295782472496993
51.199999999999996,0.0077500832794694646
51.31428571428571,0.007405248277695361
51.42857142857142,0.007201616139187665
51.542857142857144,0.007052142082547286
51.65714285714286,0.006861019787288096
51.77142857142857,0.006601064893728136
51.885714285714286,0.0063514129276284175
52.0,0.006245220907990027
52.114285714285714,0.006363788175388871
52.22857142857143,0.006665215724819675
52.34285714285714,0.007010843158010561
52.457142857142856,0.007269522414596282
52.57142857142857,0.007408676405580282
52.68571428571428,0.007493998001797028
52.8,0.007608389633104984
52.91428571428571,0.00777145809047006
53.028571428571425,0.007924312629164728
53.14285714285714,0.007974827656101089
53.25714285714285,0.007854673053210401
53.37142857142857,0.007550344343806137
53.48571428571429,0.007105937411438681
53.6,0.006614732869242711
53.714285714285715,0.006206865015311806
53.82857142857143,0.006021889938435537
53.94285714285714,0.006155374614568473
54.05714285714286,0.006593943539067028
54.17142857142857,0.007185070990838233
54.285714285714285,0.007688922123201353
54.4,0.007902007581975654
54.51428571428571,0.007767265424247784
54.628571428571426,0.007384207582375678
54.74285714285714,0.006922243244887982
54.857142857142854,0.006520584623264016
54.97142857142857,0.006246189353311827
55.08571428571428,0.006111605827794743
