Frequency,PSD
6.057142857142857,0.3049854950896821
6.171428571428571,0.30115296886810067
6.285714285714286,0.29432360130556345
6.3999999999999995,0.2860762351431874
6.514285714285714,0.27843011624295044
6.628571428571428,0.2732581591861097
6.742857142857143,0.27158789148576856
6.857142857142857,0.27320932141054866
6.9714285714285715,0.27692980057559646
7.085714285714285,0.28133863756415967
7.2,0.28547643838190256
7.314285714285714,0.2888704166709384
7.428571428571428,0.29101171254041575
7.542857142857143,0.29091012404525335
7.657142857142857,0.2872740435762911
7.771428571428571,0.27921699227815333
7.885714285714285,0.26687121150330273
8.0,0.2514206302077593
8.114285714285714,0.23465210765877834
8.228571428571428,0.218499334714152
8.342857142857143,0.20485803981494521
8.457142857142857,0.19550751672254105
8.571428571428571,0.19184767535751823
8.685714285714285,0.1944793128443712
8.799999999999999,0.2030045650648203
8.914285714285715,0.2163702904350392
9.028571428571428,0.23363077039204155
9.142857142857142,0.2545716698978042
9.257142857142856,0.2796222352942134
9.371428571428572,0.30897470498123086
9.485714285714286,0.3415090469176376
9.6,0.3744257304279798
9.714285714285714,0.4040413571842566
9.828571428571427,0.42726638707043463
9.942857142857143,0.4427116253494476
10.057142857142857,0.4507942935214399
10.17142857142857,0.45324521411941077
10.285714285714285,0.45291244286374327
10.4,0.4540874453225196
10.514285714285714,0.4624611909935122
10.628571428571428,0.4836038211598207
10.742857142857142,0.5200575147123017
10.857142857142858,0.5687546943089921
10.971428571428572,0.620919669648611
11.085714285714285,0.6651776878211112
11.2,0.6922692827542755
11.314285714285713,0.6985008168185834
11.428571428571429,0.6859985888860118
11.542857142857143,0.6601571803316144
11.657142857142857,0.6263836214064511
11.77142857142857,0.5881202649293767
11.885714285714286,0.5467328624102485
12.0,0.502586380132751
12.114285714285714,0.4562934500886666
12.228571428571428,0.4094739916802108
12.342857142857142,0.3648124678617196
12.457142857142857,0.32546572317847666
12.571428571428571,0.29405794425460646
12.685714285714285,0.2717004009881116
12.799999999999999,0.2575472876249745
12.914285714285715,0.24914157557744365
13.028571428571428,0.24332047440430637
13.142857142857142,0.23715003773302296
13.257142857142856,0.2285066047299275
13.371428571428572,0.21630873371434817
13.485714285714286,0.20059654562390586
13.6,0.1825133933712905
13.714285714285714,0.16403589078553885
13.828571428571427,0.14734131523330202
13.942857142857143,0.1339955337138289
14.057142857142857,0.12438642175122058
14.17142857142857,0.11774227855873437
14.285714285714285,0.1127007586668578
14.4,0.10804632228703363
14.514285714285714,0.10319187690916866
14.628571428571428,0.09822682116538167
14.742857142857142,0.09363889522347277
14.857142857142856,0.08993564674371116
14.971428571428572,0.08734665788454153
15.085714285714285,0.0857004553707123
15.2,0.08450586120144835
15.314285714285713,0.08320137935253394
15.428571428571429,0.08144862268169802
15.542857142857143,0.07929323153464593
15.657142857142857,0.07707924914506072
15.77142857142857,0.07517212679027184
15.885714285714284,0.07369373268231115
16.0,0.07246184180885891
16.114285714285714,0.07115447340822102
16.228571428571428,0.06953951834813456
16.34285714285714,0.06758593698314791
16.457142857142856,0.06541372108481719
16.57142857142857,0.0631929363358391
16.685714285714287,0.0611131736513547
16.8,0.05941901157231236
16.914285714285715,0.05839862434135376
17.02857142857143,0.058250782831450035
17.142857142857142,0.05890072086978164
17.257142857142856,0.05992680625791766
17.37142857142857,0.06069555413368859
17.485714285714284,0.06064318800285755
17.599999999999998,0.05953453775736205
17.714285714285715,0.05755544817339632
17.82857142857143,0.05520848603497608
17.942857142857143,0.05308444767339819
18.057142857142857,0.05161991024937134
18.17142857142857,0.05093722125984387
18.285714285714285,0.0508267744662827
18.4,0.05087811118575794
18.514285714285712,0.050701081971111145
18.628571428571426,0.05013224625582478
18.742857142857144,0.049327828365661124
18.857142857142858,0.04869827982978158
18.97142857142857,0.048709162639236955
19.085714285714285,0.04963528999671702
19.2,0.051392053572596526
19.314285714285713,0.053547798389590895
19.428571428571427,0.05552597048395099
19.54285714285714,0.05688253106075927
19.657142857142855,0.057489022936651604
19.771428571428572,0.05751962185322208
19.885714285714286,0.05728165759775723
20.0,0.057029531733219924
20.114285714285714,0.05688681280172061
20.228571428571428,0.05689682530553043
20.34285714285714,0.05712308588832968
20.457142857142856,0.05770244175742589
20.57142857142857,0.05881199720111107
20.685714285714287,0.060582555192512995
20.8,0.06301936615474237
20.914285714285715,0.06596901280569882
21.02857142857143,0.06913389977881793
21.142857142857142,0.07211881061402235
21.257142857142856,0.07450298392688696
21.37142857142857,0.07594095133805123
21.485714285714284,0.0762785979609087
21.599999999999998,0.07563323231408407
21.714285714285715,0.07437174225123852
21.82857142857143,0.07296808152808114
21.942857142857143,0.07180903823035303
22.057142857142857,0.07106616606637076
22.17142857142857,0.07070364093506973
22.285714285714285,0.07058402516282317
22.4,0.0705703554355631
22.514285714285712,0.07056033382363466
22.628571428571426,0.07047269366156796
22.742857142857144,0.07023952527715148
22.857142857142858,0.06981577149487826
22.97142857142857,0.06916793250117408
23.085714285714285,0.06822225177029768
23.2,0.06682263285791984
23.314285714285713,0.06477865385589354
23.428571428571427,0.06201553511166494
23.54285714285714,0.0587252518456243
23.657142857142855,0.055380802850766075
23.771428571428572,0.05256797065017444
23.885714285714286,0.05073431712118235
24.0,0.05002222734826692
24.114285714285714,0.05028388622200371
24.228571428571428,0.05123467366380337
24.34285714285714,0.05260635907531375
24.457142857142856,0.054184637757176024
24.57142857142857,0.05573099747412459
24.685714285714283,0.05689951107369324
24.8,0.05727221080204615
24.914285714285715,0.05653582653778992
25.02857142857143,0.054687183627080055
25.142857142857142,0.05210281478430987
25.257142857142856,0.049395651959439874
25.37142857142857,0.04714054618981295
25.485714285714284,0.045644901631111616
25.599999999999998,0.044894227324809605
25.71428571428571,0.04466692225682072
25.82857142857143,0.04470755957542295
25.942857142857143,0.0448434033782966
26.057142857142857,0.04499937633628798
26.17142857142857,0.04514240446540871
26.285714285714285,0.04522110119035457
26.4,0.04515551266463466
26.514285714285712,0.044888649537855624
26.628571428571426,0.044460546418396286
26.742857142857144,0.0440397496406813
26.857142857142858,0.04387147128845862
26.97142857142857,0.044162954568353355
27.085714285714285,0.04497375835334305
27.2,0.046170254047838755
27.314285714285713,0.047454264864124476
27.428571428571427,0.048439912452134554
27.54285714285714,0.048757671508854364
27.657142857142855,0.04817798817771583
27.771428571428572,0.04672685306025831
27.885714285714286,0.0447286736162361
28.0,0.04271877684667891
28.114285714285714,0.041242565484888964
28.228571428571428,0.04064460325211704
28.34285714285714,0.040967148131131344
28.457142857142856,0.042002392433103136
28.57142857142857,0.04343674308436704
28.685714285714283,0.04497554864155365
28.8,0.04637938972657601
28.914285714285715,0.047435359252584804
29.02857142857143,0.04794468636899943
29.142857142857142,0.04778089072226574
29.257142857142856,0.046988149761129396
29.37142857142857,0.045828294115648587
29.485714285714284,0.04470644780727161
29.599999999999998,0.04399477290036377
29.71428571428571,0.04385604489542536
29.82857142857143,0.044175831866986696
29.942857142857143,0.044639971214688934
30.057142857142857,0.04490214360142278
30.17142857142857,0.04474371077990044
30.285714285714285,0.04415537073479525
30.4,0.04332793896897943
30.514285714285712,0.042574321299407775
30.628571428571426,0.042207154383617745
30.74285714285714,0.042400746542639686
30.857142857142858,0.04308987489553564
30.97142857142857,0.043968797755325605
31.085714285714285,0.04461151782313047
31.2,0.044655801143755135
31.314285714285713,0.043947174763231026
31.428571428571427,0.04257212822166755
31.54285714285714,0.04079300696019839
31.657142857142855,0.03895252302329676
31.77142857142857,0.03739778053511869
31.885714285714286,0.03641689075961371
32.0,0.036159179223244825
32.114285714285714,0.036549595893569056
32.22857142857143,0.03725963025539713
32.34285714285714,0.03779312078734998
32.457142857142856,0.03767521507976426
32.57142857142857,0.0366531270877364
32.68571428571428,0.034796693208726484
32.8,0.032444730412919655
32.91428571428571,0.030037175061158772
33.028571428571425,0.027935198391303803
33.14285714285714,0.026322266035112847
33.25714285714285,0.02521345849664911
33.371428571428574,0.02453113222127048
33.48571428571429,0.024179736886526228
33.6,0.024078964724598726
33.714285714285715,0.024160095018523137
33.82857142857143,0.024355741088338503
33.94285714285714,0.024605077835387942
34.05714285714286,0.024872160843811074
34.17142857142857,0.025158214940551298
34.285714285714285,0.02549064518659768
34.4,0.02588837593436765
34.51428571428571,0.026323122758655917
34.628571428571426,0.02670423754935357
34.74285714285714,0.026901636539306405
34.857142857142854,0.026795087590328448
34.97142857142857,0.02632091363614434
35.08571428571428,0.02549363694141215
35.199999999999996,0.02440107870009533
35.31428571428572,0.023184401368728756
35.42857142857143,0.02200979628329183
35.542857142857144,0.021029284340873165
35.65714285714286,0.02033272977322824
35.77142857142857,0.019910576000100128
35.885714285714286,0.019655410625016616
36.0,0.01941302337142337
36.114285714285714,0.019059686666826527
36.22857142857143,0.018561194438981674
36.34285714285714,0.01798016873301603
36.457142857142856,0.017432414407461808
36.57142857142857,0.017024185092644847
36.68571428571428,0.016809619051303636
36.8,0.01678920946217875
36.91428571428571,0.016939742263228624
37.028571428571425,0.017244384582387785
37.14285714285714,0.017694358448884905
37.25714285714285,0.01825970055184574
37.371428571428574,0.018855862042976505
37.48571428571429,0.019341087696320584
37.6,0.019559012896804097
37.714285714285715,0.01940779481372497
37.82857142857143,0.0188968457924562
37.94285714285714,0.018157816225823038
38.05714285714286,0.01740032319905244
38.17142857142857,0.016828988259320114
38.285714285714285,0.016556741595188225
38.4,0.016555995480503804
38.51428571428571,0.016677946521178665
38.628571428571426,0.016737116061192017
38.74285714285714,0.01661704723121327
38.857142857142854,0.016334626730424986
38.97142857142857,0.016025550396956814
39.08571428571428,0.015866864654140146
39.199999999999996,0.01599200886005774
39.31428571428571,0.016448209329315483
39.42857142857143,0.017204092164639816
39.542857142857144,0.01817644955395353
39.65714285714286,0.01924306035637373
39.77142857142857,0.020241230431132684
39.885714285714286,0.020983146655054324
40.0,0.021312908723121297
40.114285714285714,0.021186839883227677
40.22857142857143,0.020719553351651876
40.34285714285714,0.020146526375560962
40.457142857142856,0.01971040224087991
40.57142857142857,0.019537294126121554
40.68571428571428,0.019580978343807308
40.8,0.019667376970642768
40.91428571428571,0.01960496950195116
41.028571428571425,0.01928752380553591
41.14285714285714,0.018729135474849008
41.25714285714285,0.018024721725477075
41.371428571428574,0.01728030302820947
41.48571428571429,0.016567523413117544
41.6,0.015922346686297367
41.714285714285715,0.015365008392053939
41.82857142857143,0.014907417192059806
41.94285714285714,0.014539216192738423
42.05714285714286,0.014212892481574523
42.17142857142857,0.013852217886013549
42.285714285714285,0.013387686406894233
42.4,0.012799466824378197
42.51428571428571,0.012141059878645753
42.628571428571426,0.01152848358386892
42.74285714285714,0.011101171756364495
42.857142857142854,0.010976413000273893
42.97142857142857,0.011217148535558368
43.08571428571428,0.011817053840591146
43.199999999999996,0.012695534877249087
43.31428571428571,0.013701169713365161
43.42857142857143,0.014634930156389047
43.542857142857144,0.015302399494473939
43.65714285714286,0.015581765851343408
43.77142857142857,0.015472233730542195
43.885714285714286,0.01509090718462898
44.0,0.014617078575393048
44.114285714285714,0.014216420323889718
44.22857142857143,0.013986750103220622
44.34285714285714,0.013947662940301453
44.457142857142856,0.0140670282847227
44.57142857142857,0.014298805359182602
44.68571428571428,0.014606299405890385
44.8,0.01495907372413558
44.91428571428571,0.015311799040880881
45.028571428571425,0.015587719918772575
45.14285714285714,0.015687182452747715
45.25714285714285,0.015522879001239484
45.37142857142857,0.015062779509410684
45.48571428571429,0.014355617166031702
45.6,0.01352506123466623
45.714285714285715,0.0127362063609048
45.82857142857143,0.012149199913885918
45.94285714285714,0.01187553532840039
46.05714285714286,0.011947253156903613
46.17142857142857,0.012305313160191742
46.285714285714285,0.012813003538673262
46.4,0.013297426617374947
46.51428571428571,0.013610399944520415
46.628571428571426,0.013684660546666429
46.74285714285714,0.013557277698694206
46.857142857142854,0.013347733954581715
46.97142857142857,0.013202642527548668
47.08571428571428,0.013233911167835283
47.199999999999996,0.013475079932754212
47.31428571428571,0.01386935195342571
47.42857142857143,0.014291721693425977
47.542857142857144,0.014597284270449
47.65714285714286,0.014676680516062982
47.77142857142857,0.01449378403878113
47.885714285714286,0.014089727644507364
48.0,0.013558860624062592
48.114285714285714,0.013017915336644035
48.22857142857143,0.012583971197785974
48.34285714285714,0.012357797470237358
48.457142857142856,0.012401355082331738
48.57142857142857,0.012711995139735643
48.68571428571428,0.013213571745311063
48.8,0.013783885788836906
48.91428571428571,0.014319109110665326
49.028571428571425,0.014816047445918025
49.14285714285714,0.015439081027901072
49.25714285714285,0.016525067251038195
49.37142857142857,0.0184760207723893
49.48571428571429,0.021529019174377606
49.6,0.02548952179189037
49.714285714285715,0.029609551729849557
49.82857142857143,0.03277317694599677
49.94285714285714,0.03396692973412572
50.05714285714286,0.03277704672330051
50.17142857142857,0.029586749353120972
50.285714285714285,0.02534480623853362
50.4,0.021084327194053277
50.51428571428571,0.017516853997839747
50.628571428571426,0.014905864288686739
50.74285714285714,0.01318562850766197
50.857142857142854,0.012154257972293487
50.97142857142857,0.011603878554883706
51.08571428571428,0.01136226508649027
51.199999999999996,0.011291415139942916
51.31428571428571,0.011286259599556593
51.42857142857142,0.01128191254821744
51.542857142857144,0.01125674093775937
51.65714285714286,0.011221594724310665
51.77142857142857,0.011197434552705934
51.885714285714286,0.01119107558433272
52.0,0.011181134557591992
52.114285714285714,0.011125105096325883
52.22857142857143,0.010989496727992541
52.34285714285714,0.0107868354149709
52.457142857142856,0.01058932184257627
52.57142857142857,0.010498194033939416
52.68571428571428,0.010580815106014857
52.8,0.010817727392746772
52.91428571428571,0.011100009385184961
53.028571428571425,0.011282294472457596
53.14285714285714,0.01125819551579733
53.25714285714285,0.011012877773248437
53.37142857142857,0.01062625694511289
53.48571428571429,0.010230773191759
53.6,0.00994999932268822
53.714285714285715,0.009850369003306506
53.82857142857143,0.009928103807542972
53.94285714285714,0.010131541868987542
54.05714285714286,0.010397493516999166
54.17142857142857,0.010674885194029428
54.285714285714285,0.0109249773569753
54.4,0.011110507236103184
54.51428571428571,0.011194427645909135
54.628571428571426,0.01115536812754625
54.74285714285714,0.011006600433784978
54.857142857142854,0.010799429768805588
54.97142857142857,0.0106055182368844
55.08571428571428,0.010489903121414929
