Frequency,PSD
6.057142857142857,0.09722522265587324
6.171428571428571,0.09565007219196167
6.285714285714286,0.09341872950117834
6.3999999999999995,0.09182199919876416
6.514285714285714,0.09185767498239264
6.628571428571428,0.09387079577765751
6.742857142857143,0.09757147499680527
6.857142857142857,0.10224882133279482
6.9714285714285715,0.10704334034353245
7.085714285714285,0.11125539596943226
7.2,0.11460116828370102
7.314285714285714,0.11720210690406482
7.428571428571428,0.11923378860185221
7.542857142857143,0.12054571786628959
7.657142857142857,0.1207118924565288
7.771428571428571,0.1195611453971439
7.885714285714285,0.1176576656059048
8.0,0.11615338092245897
8.114285714285714,0.11602883793542057
8.228571428571428,0.1173584386285907
8.342857142857143,0.11926206628155454
8.457142857142857,0.12063159297392548
8.571428571428571,0.12105386190792773
8.685714285714285,0.12115441302243131
8.799999999999999,0.12206346501402031
8.914285714285715,0.12449289950039519
9.028571428571428,0.12829799266419625
9.142857142857142,0.13296962535381562
9.257142857142856,0.13862479325497143
9.371428571428572,0.1465759288764622
9.485714285714286,0.1589385276704381
9.6,0.1775819805984345
9.714285714285714,0.20318885966922345
9.828571428571427,0.23490882766148946
9.942857142857143,0.27056073135667846
10.057142857142857,0.3071484191581487
10.17142857142857,0.3415554002496358
10.285714285714285,0.37127617401454227
10.4,0.39496280562384084
10.514285714285714,0.41270793059832117
10.628571428571428,0.42615703006716943
10.742857142857142,0.43829330599326477
10.857142857142858,0.45235872149228207
10.971428571428572,0.4697716997609508
11.085714285714285,0.48813747294948695
11.2,0.5011774908915008
11.314285714285713,0.5013934482356961
11.428571428571429,0.4840911004096049
11.542857142857143,0.4500246461664381
11.657142857142857,0.40481847067350035
11.77142857142857,0.3558201356164623
11.885714285714286,0.30888893450662724
12.0,0.2671844119827622
12.114285714285714,0.23195712656109368
12.228571428571428,0.20383067506143007
12.342857142857142,0.18331633001079378
12.457142857142857,0.17050650535349918
12.571428571428571,0.16459782104721277
12.685714285714285,0.16371223147825412
12.799999999999999,0.1650766321007811
12.914285714285715,0.16552586965706498
13.028571428571428,0.16233755533265692
13.142857142857142,0.15421270766492212
13.257142857142856,0.14188074774868792
13.371428571428572,0.1278104952018808
13.485714285714286,0.11503925970073064
13.6,0.10576883893856098
13.714285714285714,0.10054084367747186
13.828571428571427,0.0983730523193104
13.942857142857143,0.09760592311844661
14.057142857142857,0.09684243817780303
14.17142857142857,0.095447942435805
14.285714285714285,0.09347590217402045
14.4,0.09128676911478945
14.514285714285714,0.08922933929763634
14.628571428571428,0.08752038781094733
14.742857142857142,0.08619852205365508
14.857142857142856,0.08505644313671858
14.971428571428572,0.08366839501031667
15.085714285714285,0.0816448193301754
15.2,0.07897892026740835
15.314285714285713,0.07616075132996028
15.428571428571429,0.07391087114230677
15.542857142857143,0.07273890397163091
15.657142857142857,0.07267320745492073
15.77142857142857,0.07332976915254316
15.885714285714284,0.0742110792322934
16.0,0.07498767090535431
16.114285714285714,0.07557636926881697
16.228571428571428,0.07600633427506548
16.34285714285714,0.07622597636023917
16.457142857142856,0.07604101738352029
16.57142857142857,0.07525615920851615
16.685714285714287,0.07390446812699826
16.8,0.07234754580240504
16.914285714285715,0.07112028030355565
17.02857142857143,0.07061070044207915
17.142857142857142,0.07081210559725692
17.257142857142856,0.07132914074351193
17.37142857142857,0.07162447576726035
17.485714285714284,0.0713287867810287
17.599999999999998,0.07041249299826315
17.714285714285715,0.06912535225589068
17.82857142857143,0.06777145627102803
17.942857142857143,0.06649743480027508
18.057142857142857,0.06524907307101432
18.17142857142857,0.06391184024228398
18.285714285714285,0.06250884219907556
18.4,0.06128955433828298
18.514285714285712,0.0606169297279012
18.628571428571426,0.060702419538594295
18.742857142857144,0.06137419149913238
18.857142857142858,0.06208301220600952
18.97142857142857,0.06218630562308411
19.085714285714285,0.061314329288090844
19.2,0.05954218077524469
19.314285714285713,0.0572620744904566
19.428571428571427,0.05490646975346867
19.54285714285714,0.05276205641486544
19.657142857142855,0.05096972342089574
19.771428571428572,0.04960933412471399
19.885714285714286,0.048736915165946526
20.0,0.04836933572266726
20.114285714285714,0.04849580383152936
20.228571428571428,0.04912500519075452
20.34285714285714,0.05027991181391389
20.457142857142856,0.05189768081693505
20.57142857142857,0.05373206851637641
20.685714285714287,0.05538920973023784
20.8,0.05649115204763998
20.914285714285715,0.05682691841892125
21.02857142857143,0.05638381939871551
21.142857142857142,0.05528598219502533
21.257142857142856,0.05372207366124106
21.37142857142857,0.05188928151036061
21.485714285714284,0.049940810865785855
21.599999999999998,0.047957269802593475
21.714285714285715,0.045982122424637686
21.82857142857143,0.04410030540754595
21.942857142857143,0.04246586290799805
22.057142857142857,0.04121003283216779
22.17142857142857,0.04028802275276511
22.285714285714285,0.03942452952673706
22.4,0.038264057382274765
22.514285714285712,0.036641443019019795
22.628571428571426,0.0347483611376235
22.742857142857144,0.033045946352354874
22.857142857142858,0.03199364609997062
22.97142857142857,0.03180051333943247
23.085714285714285,0.032346513058297464
23.2,0.03327947057329109
23.314285714285713,0.034209283165419976
23.428571428571427,0.034899965410905384
23.54285714285714,0.0353557264393077
23.657142857142855,0.03573821126692625
23.771428571428572,0.036169801810491994
23.885714285714286,0.036582547301025364
24.0,0.036735263654306294
24.114285714285714,0.0363675769239286
24.228571428571428,0.035356865125866214
24.34285714285714,0.03378380449309816
24.457142857142856,0.031907864030260275
24.57142857142857,0.030089354783191146
24.685714285714283,0.028676342791032594
24.8,0.02787898103428922
24.914285714285715,0.02769063916811686
25.02857142857143,0.027919091255799645
25.142857142857142,0.02832373689972068
25.257142857142856,0.0287673817826853
25.37142857142857,0.02927299589382416
25.485714285714284,0.02995424465673323
25.599999999999998,0.03089055147021319
25.71428571428571,0.03204490046934903
25.82857142857143,0.033259994135886255
25.942857142857143,0.03429620242444595
26.057142857142857,0.03487170827696522
26.17142857142857,0.03471678088887416
26.285714285714285,0.033674251567151176
26.4,0.03182039414192245
26.514285714285712,0.02950748548252044
26.628571428571426,0.027248084409126967
26.742857142857144,0.02548338415856488
26.857142857142858,0.024386695415940657
26.97142857142857,0.02383326194202485
27.085714285714285,0.023538998779040483
27.2,0.02325588288123405
27.314285714285713,0.02289856889650947
27.428571428571427,0.022547684407520658
27.54285714285714,0.022355137244263953
27.657142857142855,0.02241680843075982
27.771428571428572,0.02268225806582896
27.885714285714286,0.022956318322487967
28.0,0.023006948284012542
28.114285714285714,0.022723424412752387
28.228571428571428,0.022212375709934236
28.34285714285714,0.021742955560846725
28.457142857142856,0.021562852130828303
28.57142857142857,0.021718309885252193
28.685714285714283,0.02202137805312847
28.8,0.022198022698311698
28.914285714285715,0.02210776115820519
29.02857142857143,0.021865952150699964
29.142857142857142,0.021773751513288645
29.257142857142856,0.022108083255271145
29.37142857142857,0.022924520194403646
29.485714285714284,0.02400485163598693
29.599999999999998,0.024970296683243586
29.71428571428571,0.025476125860165105
29.82857142857143,0.025372024894170998
29.942857142857143,0.024753966501462048
30.057142857142857,0.02390153357917777
30.17142857142857,0.02314403718963297
30.285714285714285,0.0227161757237348
30.4,0.022663291061862163
30.514285714285712,0.02284201051937538
30.628571428571426,0.023018714234008354
30.74285714285714,0.023004151382901992
30.857142857142858,0.02273352141519948
30.97142857142857,0.022249407112628142
31.085714285714285,0.02162900652713292
31.2,0.020930739183950754
31.314285714285713,0.02019237680467894
31.428571428571427,0.019455105136250272
31.54285714285714,0.018778303108658738
31.657142857142855,0.018236557776868497
31.77142857142857,0.017903213702744003
31.885714285714286,0.017817055775532872
32.0,0.017937900637593474
32.114285714285714,0.018128453584044447
32.22857142857143,0.018204380294955
32.34285714285714,0.01804138872623391
32.457142857142856,0.01766374171771107
32.57142857142857,0.017237541783857405
32.68571428571428,0.016964401396814863
32.8,0.016949970384623595
32.91428571428571,0.01713975009673799
33.028571428571425,0.017364600596171297
33.14285714285714,0.017461174432015995
33.25714285714285,0.017378788056358074
33.371428571428574,0.017193590836415692
33.48571428571429,0.0170261561496121
33.6,0.016941608363308075
33.714285714285715,0.016921861103547178
33.82857142857143,0.016924249826877097
33.94285714285714,0.016957569804783593
34.05714285714286,0.017097568948539407
34.17142857142857,0.017427934340033154
34.285714285714285,0.01796020179475973
34.4,0.01859904478447411
34.51428571428571,0.019177554514988013
34.628571428571426,0.019532727512780616
34.74285714285714,0.01956945239464086
34.857142857142854,0.019283300115689454
34.97142857142857,0.018748760242332515
35.08571428571428,0.018093354679976848
35.199999999999996,0.01746571737439731
35.31428571428572,0.01699439398523628
35.42857142857143,0.016742479051508177
35.542857142857144,0.016679187996873828
35.65714285714286,0.01668963160242619
35.77142857142857,0.01662398973894951
35.885714285714286,0.016364131089209616
36.0,0.01587647170501779
36.114285714285714,0.015227916543815022
36.22857142857143,0.014561829735771508
36.34285714285714,0.014052207831416603
36.457142857142856,0.01385931025353126
36.57142857142857,0.014092294116091154
36.68571428571428,0.014767890690621779
36.8,0.015770007482178217
36.91428571428571,0.016849537508469146
37.028571428571425,0.01770096517740776
37.14285714285714,0.01809211378290545
37.25714285714285,0.01796473560178896
37.371428571428574,0.01743758548100425
37.48571428571429,0.016719654498500006
37.6,0.016001920328861732
37.714285714285715,0.015393276590024726
37.82857142857143,0.014921914312163427
37.94285714285714,0.014580325003403784
38.05714285714286,0.014371494898307647
38.17142857142857,0.01432163347903732
38.285714285714285,0.0144569549981055
38.4,0.014772965744789843
38.51428571428571,0.015223969065660203
38.628571428571426,0.015733077275747968
38.74285714285714,0.016205343718990003
38.857142857142854,0.016536069144115283
38.97142857142857,0.01662241376356256
39.08571428571428,0.01638680702635291
39.199999999999996,0.01580793835216715
39.31428571428571,0.014943418120750632
39.42857142857143,0.013926701483041693
39.542857142857144,0.012933219094303732
39.65714285714286,0.012130766560076316
39.77142857142857,0.011639452752243151
39.885714285714286,0.011516657109345201
40.0,0.011764117632466885
40.114285714285714,0.012343898070832016
40.22857142857143,0.01318954232400461
40.34285714285714,0.014204398758469388
40.457142857142856,0.015252027552814445
40.57142857142857,0.016159179507923338
40.68571428571428,0.016753284647610445
40.8,0.016932745866675404
40.91428571428571,0.016733064957295013
41.028571428571425,0.016336441544129693
41.14285714285714,0.0159994505254979
41.25714285714285,0.015930409068445856
41.371428571428574,0.016189972688344455
41.48571428571429,0.016676849458300044
41.6,0.017203447624399643
41.714285714285715,0.01760891839022043
41.82857142857143,0.017836736211327073
41.94285714285714,0.01792957971906328
42.05714285714286,0.01795342262314937
42.17142857142857,0.01791931240151316
42.285714285714285,0.017774282710413702
42.4,0.01746862993071799
42.51428571428571,0.01703297659098308
42.628571428571426,0.016588599678609442
42.74285714285714,0.016275523099488466
42.857142857142854,0.016154178412864085
42.97142857142857,0.01615772451605724
43.08571428571428,0.01613221353089761
43.199999999999996,0.01593565109433723
43.31428571428571,0.015525921811183747
43.42857142857143,0.014981710293241642
43.542857142857144,0.01445367591928314
43.65714285714286,0.0140878695724579
43.77142857142857,0.013967692479385972
43.885714285714286,0.014093888620196606
44.0,0.014395415841905877
44.114285714285714,0.014756577505632702
44.22857142857143,0.015051876735439168
44.34285714285714,0.015183467223744732
44.457142857142856,0.015111692067191275
44.57142857142857,0.014867696748066867
44.68571428571428,0.014545394920045323
44.8,0.014277053484404424
44.91428571428571,0.014193074053414821
45.028571428571425,0.014366978628656608
45.14285714285714,0.014766510380774847
45.25714285714285,0.015249490442751402
45.37142857142857,0.01562221351100528
45.48571428571429,0.015727846067361596
45.6,0.015506778709780428
45.714285714285715,0.014998772454612161
45.82857142857143,0.014304191335648007
45.94285714285714,0.013540667700470852
46.05714285714286,0.012816085225966613
46.17142857142857,0.012215929137680517
46.285714285714285,0.011793949946679625
46.4,0.011562037273735042
46.51428571428571,0.011488994554635982
46.628571428571426,0.011522215228468663
46.74285714285714,0.011629729451680913
46.857142857142854,0.011835154083823747
46.97142857142857,0.012213762508371563
47.08571428571428,0.012844615987969274
47.199999999999996,0.013747388451583301
47.31428571428571,0.014841973860479217
47.42857142857143,0.015950394044227302
47.542857142857144,0.016837226879302794
47.65714285714286,0.01727576574133492
47.77142857142857,0.017124954620307116
47.885714285714286,0.016391095085782174
48.0,0.015238770691893656
48.114285714285714,0.013935025930951243
48.22857142857143,0.012755137271436841
48.34285714285714,0.011902631178402939
48.457142857142856,0.011474955115953086
48.57142857142857,0.011470443509428694
48.68571428571428,0.011824403920389508
48.8,0.012479699335075265
48.91428571428571,0.01350828905497831
49.028571428571425,0.015291317723823038
49.14285714285714,0.018731254867290673
49.25714285714285,0.025372848215169993
49.37142857142857,0.03714373414330365
49.48571428571429,0.05538140613408128
49.6,0.0792409997171448
49.714285714285715,0.10447214987963561
49.82857142857143,0.12405589132177457
49.94285714285714,0.131217419460346
50.05714285714286,0.12319062098219227
50.17142857142857,0.10292101939384038
50.285714285714285,0.07730597197683911
50.4,0.05340488832485147
50.51428571428571,0.03543393109177851
50.628571428571426,0.024152135685979844
50.74285714285714,0.01811475945210871
50.857142857142854,0.015300342774204077
50.97142857142857,0.014108264321286665
51.08571428571428,0.01361224453907862
51.199999999999996,0.013404275338867525
51.31428571428571,0.013346129184665167
51.42857142857142,0.01338289863293719
51.542857142857144,0.013456222263390528
51.65714285714286,0.0134973237673381
51.77142857142857,0.013455701781326369
51.885714285714286,0.013323444292846941
52.0,0.013138058768497263
52.114285714285714,0.012964412411484957
52.22857142857143,0.012860973150781078
52.34285714285714,0.012842322889033302
52.457142857142856,0.012862382391732166
52.57142857142857,0.012839199055941575
52.68571428571428,0.01271215731169369
52.8,0.01249213544551693
52.91428571428571,0.01226622815775233
53.028571428571425,0.012149894063102306
53.14285714285714,0.012213882585673179
53.25714285714285,0.012430176234856484
53.37142857142857,0.012674644460923881
53.48571428571429,0.012794217681237528
53.6,0.012702695433843628
53.714285714285715,0.01244097253460953
53.82857142857143,0.012156010665376374
53.94285714285714,0.012012438997117498
54.05714285714286,0.012100689640836791
54.17142857142857,0.012400323835707557
54.285714285714285,0.012806278870292738
54.4,0.013181845343240552
54.51428571428571,0.013402366959785863
54.628571428571426,0.01338408403262964
54.74285714285714,0.013110980534636534
54.857142857142854,0.012658199967737984
54.97142857142857,0.012186444414977791
55.08571428571428,0.01188575899849087
