Frequency,PSD
6.057142857142857,0.37359712809148615
6.171428571428571,0.3757888694690267
6.285714285714286,0.3794967929541524
6.3999999999999995,0.38387375341357477
6.514285714285714,0.38856228833736384
6.628571428571428,0.39400601002154007
6.742857142857143,0.40111640003864746
6.857142857142857,0.4105207027454886
6.9714285714285715,0.42200435950046916
7.085714285714285,0.4346025339645111
7.2,0.44722037783014934
7.314285714285714,0.45924792574030504
7.428571428571428,0.4707539386804658
7.542857142857143,0.48227294231754914
7.657142857142857,0.4944551056377262
7.771428571428571,0.5077440992306195
7.885714285714285,0.5220334526244019
8.0,0.5362601605228485
8.114285714285714,0.5481576395908307
8.228571428571428,0.5545944603595363
8.342857142857143,0.5527168165402494
8.457142857142857,0.5414983261962083
8.571428571428571,0.5227632326198471
8.685714285714285,0.5008624948348085
8.799999999999999,0.4810124531503831
8.914285714285715,0.46723696738576626
9.028571428571428,0.4611174229123574
9.142857142857142,0.4619462650299839
9.257142857142856,0.46792350663474247
9.371428571428572,0.4774822344682289
9.485714285714286,0.4900231488372263
9.6,0.5059938645735794
9.714285714285714,0.5267359374003526
9.828571428571427,0.5544164019206506
9.942857142857143,0.59183389106795
10.057142857142857,0.6415762409392401
10.17142857142857,0.7043816947327052
10.285714285714285,0.7773988257452235
10.4,0.8535584699576572
10.514285714285714,0.922833305734658
10.628571428571428,0.9749672812694619
10.742857142857142,1.0022656483020302
10.857142857142858,1.0011163597969106
10.971428571428572,0.9719800652976106
11.085714285714285,0.9186227110552468
11.2,0.8474220531122176
11.314285714285713,0.7667542041290585
11.428571428571429,0.6857974352041868
11.542857142857143,0.612434738103608
11.657142857142857,0.551011153321675
11.77142857142857,0.5013409994783651
11.885714285714286,0.4597578033318444
12.0,0.42160563620385594
12.114285714285714,0.38363882180568176
12.228571428571428,0.3450893503708666
12.342857142857142,0.3072540534174244
12.457142857142857,0.2723242839478309
12.571428571428571,0.24226857757121387
12.685714285714285,0.2181469690362629
12.799999999999999,0.19985539139067673
12.914285714285715,0.18621616004084626
13.028571428571428,0.1753778700301872
13.142857142857142,0.1654423072818931
13.257142857142856,0.15510241757729834
13.371428571428572,0.14401693336073193
13.485714285714286,0.1327573755338725
13.6,0.12237998031229705
13.714285714285714,0.11386394072820141
13.828571428571427,0.10770730869796927
13.942857142857143,0.10384779790285781
14.057142857142857,0.1018536314129097
14.17142857142857,0.10117324685216451
14.285714285714285,0.1012637944081382
14.4,0.10159046273379613
14.514285714285714,0.10162722438023894
14.628571428571428,0.1009697355033688
14.742857142857142,0.09953161278560249
14.857142857142856,0.09767681278858285
14.971428571428572,0.09614516651637332
15.085714285714285,0.09574794849843922
15.2,0.09696060192057064
15.314285714285713,0.09962459209425496
15.428571428571429,0.10293465710798642
15.542857142857143,0.1057442928165825
15.657142857142857,0.10704896550210645
15.77142857142857,0.10640432602706905
15.885714285714284,0.10406834947160151
16.0,0.10080620318849978
16.114285714285714,0.09747919310906566
16.228571428571428,0.09464985796016152
16.34285714285714,0.09241202961346658
16.457142857142856,0.09051275519949079
16.57142857142857,0.08865727762868578
16.685714285714287,0.08678781604723007
16.8,0.08516703138632567
16.914285714285715,0.08424425702445534
17.02857142857143,0.08441929387919889
17.142857142857142,0.0858441538448581
17.257142857142856,0.08833037523553194
17.37142857142857,0.09135953037690851
17.485714285714284,0.09418924499369945
17.599999999999998,0.09605941301458516
17.714285714285715,0.09645878961280412
17.82857142857143,0.09533096957297305
17.942857142857143,0.09308620471057338
18.057142857142857,0.09039401533210104
18.17142857142857,0.08787720667756453
18.285714285714285,0.08587887094921018
18.4,0.08439952607201995
18.514285714285712,0.0831911650315931
18.628571428571426,0.081936804322737
18.742857142857144,0.0804361806476872
18.857142857142858,0.07871766562259651
18.97142857142857,0.07700826500868227
19.085714285714285,0.07555954084005216
19.2,0.07443565624355454
19.314285714285713,0.07342679880032969
19.428571428571427,0.07217562688330291
19.54285714285714,0.07043695289114209
19.657142857142855,0.06827681030372103
19.771428571428572,0.06606317179273288
19.885714285714286,0.0642645011994195
20.0,0.06320780357274024
20.114285714285714,0.06295011666029446
20.228571428571428,0.06330930524685337
20.34285714285714,0.06398748272016448
20.457142857142856,0.06468811483787597
20.57142857142857,0.06517805463952918
20.685714285714287,0.06531410882848816
20.8,0.0650731063173337
20.914285714285715,0.06458385504320852
21.02857142857143,0.0641115301339167
21.142857142857142,0.06395276818135215
21.257142857142856,0.0642693080157821
21.37142857142857,0.0649572019190402
21.485714285714284,0.06564615424298142
21.599999999999998,0.06584175805477119
21.714285714285715,0.06512903898808119
21.82857142857143,0.06332597164718166
21.942857142857143,0.06052513402750827
22.057142857142857,0.057036303158332184
22.17142857142857,0.05328198741264862
22.285714285714285,0.04969092922012942
22.4,0.0466119781214244
22.514285714285712,0.04425683850481233
22.628571428571426,0.042673982132506116
22.742857142857144,0.04175157145127763
22.857142857142858,0.04124807629821616
22.97142857142857,0.04085408387736092
23.085714285714285,0.040282771117747654
23.2,0.03936302716857064
23.314285714285713,0.03809009734012835
23.428571428571427,0.03660383553640069
23.54285714285714,0.03511157876255305
23.657142857142855,0.03380996675692145
23.771428571428572,0.03284985976528167
23.885714285714286,0.03233978686725579
24.0,0.032345913151918614
24.114285714285714,0.03285973124917649
24.228571428571428,0.033754510059308865
24.34285714285714,0.0347833905244014
24.457142857142856,0.03564846396262295
24.57142857142857,0.036111420634724674
24.685714285714283,0.03607884670777766
24.8,0.03561305256996207
24.914285714285715,0.03487327150499583
25.02857142857143,0.03403483370998204
25.142857142857142,0.03323596059984223
25.257142857142856,0.032570283992503044
25.37142857142857,0.032106241653267614
25.485714285714284,0.031897286700054345
25.599999999999998,0.03195872054867615
25.71428571428571,0.032219398361865166
25.82857142857143,0.03248749956713178
25.942857142857143,0.03247498438030644
26.057142857142857,0.03189548986852213
26.17142857142857,0.030599746414805444
26.285714285714285,0.028674322883585845
26.4,0.026435295268822087
26.514285714285712,0.024304070933773562
26.628571428571426,0.02262649203886468
26.742857142857144,0.021536094128599165
26.857142857142858,0.02093519401791935
26.97142857142857,0.020591380979819857
27.085714285714285,0.020279019900107935
27.2,0.019882817644738086
27.314285714285713,0.019422040667486
27.428571428571427,0.01900801318851626
27.54285714285714,0.01877475496846865
27.657142857142855,0.018817096499419938
27.771428571428572,0.01915272022336223
27.885714285714286,0.019712728084819792
28.0,0.0203606168067927
28.114285714285714,0.020934359196344718
28.228571428571428,0.021298618529723652
28.34285714285714,0.021388829747773862
28.457142857142856,0.02122986486441744
28.57142857142857,0.020919391189749944
28.685714285714283,0.02057947744395152
28.8,0.02029729616187088
28.914285714285715,0.020086816551137622
29.02857142857143,0.019894424312569197
29.142857142857142,0.01964283499772628
29.257142857142856,0.01928209367034399
29.37142857142857,0.018817707134158652
29.485714285714284,0.018310223656772373
29.599999999999998,0.017859592548918658
29.71428571428571,0.017583820793209835
29.82857142857143,0.017588921702878856
29.942857142857143,0.01793008619114589
30.057142857142857,0.018582014252803085
30.17142857142857,0.019443555192370957
30.285714285714285,0.020380688971379672
30.4,0.02127863223876207
30.514285714285712,0.022063438345842096
30.628571428571426,0.02268062432008306
30.74285714285714,0.02305886040210464
30.857142857142858,0.02310104297770007
30.97142857142857,0.02271927751607363
31.085714285714285,0.021889957630403516
31.2,0.020687768568894756
31.314285714285713,0.01927546361948441
31.428571428571427,0.017858826006883474
31.54285714285714,0.016634184306614543
31.657142857142855,0.01574978194516203
31.77142857142857,0.015285912351331934
31.885714285714286,0.015249367854413068
32.0,0.015578734297104697
32.114285714285714,0.016159746947628516
32.22857142857143,0.01684814371878955
32.34285714285714,0.01749437456621303
32.457142857142856,0.017965395524044855
32.57142857142857,0.018162369135486307
32.68571428571428,0.018034074276633626
32.8,0.017583330288719338
32.91428571428571,0.016863021878179733
33.028571428571425,0.01596283932300672
33.14285714285714,0.01499314619249778
33.25714285714285,0.01407122728963173
33.371428571428574,0.01330799307209126
33.48571428571429,0.012789216707295461
33.6,0.012551479597055451
33.714285714285715,0.012564474724673862
33.82857142857143,0.012735788259994753
33.94285714285714,0.01294421533490597
34.05714285714286,0.013088440876234581
34.17142857142857,0.013124743530573715
34.285714285714285,0.013072909413669473
34.4,0.01299103348510396
34.51428571428571,0.012939432439866626
34.628571428571426,0.01295542259011797
34.74285714285714,0.013046443293035252
34.857142857142854,0.0131952392670378
34.97142857142857,0.013368652837589898
35.08571428571428,0.013526984927802257
35.199999999999996,0.013633847839814714
35.31428571428572,0.013664093503144353
35.42857142857143,0.01360530731543578
35.542857142857144,0.013451794144123655
35.65714285714286,0.013197068333376947
35.77142857142857,0.012834059885793135
35.885714285714286,0.012366264440368726
36.0,0.011821708127445124
36.114285714285714,0.011255937923111078
36.22857142857143,0.010737672116917387
36.34285714285714,0.010325653568356661
36.457142857142856,0.010053112458286812
36.57142857142857,0.009928655722284357
36.68571428571428,0.009946831287498127
36.8,0.010094139386949903
36.91428571428571,0.010344469522805464
37.028571428571425,0.010652716167126045
37.14285714285714,0.010960564983774557
37.25714285714285,0.011218062383364926
37.371428571428574,0.011408555086981378
37.48571428571429,0.011558342261669411
37.6,0.011721839493835682
37.714285714285715,0.01195027036309627
37.82857142857143,0.012263214737472085
37.94285714285714,0.012639554973217589
38.05714285714286,0.013030349211935924
38.17142857142857,0.013382187454969136
38.285714285714285,0.013656078385817417
38.4,0.01383452349768079
38.51428571428571,0.01391927804718323
38.628571428571426,0.013925798786987844
38.74285714285714,0.013877496538768234
38.857142857142854,0.013799644000333856
38.97142857142857,0.01371273385872557
39.08571428571428,0.01362627652902515
39.199999999999996,0.013533734803032266
39.31428571428571,0.01340884460682006
39.42857142857143,0.013205915382963545
39.542857142857144,0.012869905227120684
39.65714285714286,0.012359365771943569
39.77142857142857,0.011674655771637678
39.885714285714286,0.010874158754149127
40.0,0.010064345136123636
40.114285714285714,0.009365233384551384
40.22857142857143,0.008868010082035641
40.34285714285714,0.00860473022469303
40.457142857142856,0.008542087675168978
40.57142857142857,0.008600388534141955
40.68571428571428,0.008689694969208357
40.8,0.008747909387893237
40.91428571428571,0.008762960474428668
41.028571428571425,0.008768346383028836
41.14285714285714,0.008816961997772023
41.25714285714285,0.008951175322579562
41.371428571428574,0.009186251241908602
41.48571428571429,0.009511064716759119
41.6,0.009897838414361076
41.714285714285715,0.010311454574512451
41.82857142857143,0.01071558567034279
41.94285714285714,0.011077366830578235
42.05714285714286,0.011370638178396807
42.17142857142857,0.011575342909510324
42.285714285714285,0.01167320188537221
42.4,0.011644947952723602
42.51428571428571,0.011474872734849656
42.628571428571426,0.011161953700715788
42.74285714285714,0.010729919247290094
42.857142857142854,0.010228935655876108
42.97142857142857,0.009728432138559793
43.08571428571428,0.00930577710367775
43.199999999999996,0.009034026893768983
43.31428571428571,0.008968005335815786
43.42857142857143,0.009128618674994652
43.542857142857144,0.009490566633929725
43.65714285714286,0.009981619227634178
43.77142857142857,0.010497946546894288
43.885714285714286,0.010932525250115281
44.0,0.011207665745797228
44.114285714285714,0.011299967896614811
44.22857142857143,0.011246408538447866
44.34285714285714,0.011125749123570429
44.457142857142856,0.01102120797494677
44.57142857142857,0.01098252886337028
44.68571428571428,0.01100759735952581
44.8,0.01105172545570628
44.91428571428571,0.011055676759821375
45.028571428571425,0.010974890309804895
45.14285714285714,0.010796672219249445
45.25714285714285,0.010542303070707472
45.37142857142857,0.010257782073938265
45.48571428571429,0.009997766840890009
45.6,0.009806158057047742
45.714285714285715,0.009697774974025436
45.82857142857143,0.009648115603501635
45.94285714285714,0.009598214969393198
46.05714285714286,0.00947622644403994
46.17142857142857,0.00922847432753469
46.285714285714285,0.008846237944582495
46.4,0.008375417965814428
46.51428571428571,0.007904023167692165
46.628571428571426,0.007531813404268785
46.74285714285714,0.0073329566208391985
46.857142857142854,0.0073258781530779
46.97142857142857,0.007464695132710392
47.08571428571428,0.007660115246174887
47.199999999999996,0.007822228774837839
47.31428571428571,0.007901689390889454
47.42857142857143,0.007905069395665335
47.542857142857144,0.00787949678487954
47.65714285714286,0.007884471316648814
47.77142857142857,0.007972577655359568
47.885714285714286,0.00818349290878653
48.0,0.008538965876485722
48.114285714285714,0.009030237696050188
48.22857142857143,0.009607649586293595
48.34285714285714,0.010190771341004514
48.457142857142856,0.010704530489094297
48.57142857142857,0.011129427182443351
48.68571428571428,0.011560056735798914
48.8,0.012303626842175827
48.91428571428571,0.014092089610005264
49.028571428571425,0.018473961051911344
49.14285714285714,0.028330355503694317
49.25714285714285,0.04818975898384162
49.37142857142857,0.0836959632292403
49.48571428571429,0.1395525286509801
49.6,0.21597756351862893
49.714285714285715,0.3051736493683995
49.82857142857143,0.390566346451232
49.94285714285714,0.4509850668442919
50.05714285714286,0.4689811789160239
50.17142857142857,0.43896391664877604
50.285714285714285,0.37001253856802024
50.4,0.28144329525263195
50.51428571428571,0.1940626410133388
50.628571428571426,0.12247488723937992
50.74285714285714,0.07214663290891721
50.857142857142854,0.04118836308469695
50.97142857142857,0.024236920763094687
51.08571428571428,0.01578452095034422
51.199999999999996,0.011808923302118406
51.31428571428571,0.00996388672253396
51.42857142857142,0.009102472881862677
51.542857142857144,0.008730141396680133
51.65714285714286,0.008630315264330803
51.77142857142857,0.008674650257587036
51.885714285714286,0.008756346363242792
52.0,0.008788131090303283
52.114285714285714,0.0087230293067452
52.22857142857143,0.008568123389563044
52.34285714285714,0.008375189019425555
52.457142857142856,0.00821046756274752
52.57142857142857,0.008121033197888636
52.68571428571428,0.008116937469090313
52.8,0.00817583207717153
52.91428571428571,0.008261112770491654
53.028571428571425,0.008338534518837093
53.14285714285714,0.008382626644852915
53.25714285714285,0.008375185029052316
53.37142857142857,0.008303954637609695
53.48571428571429,0.00816706614830266
53.6,0.007981523999252092
53.714285714285715,0.007788253608436787
53.82857142857143,0.0076462620816394435
53.94285714285714,0.007614469929528991
54.05714285714286,0.007727804756703336
54.17142857142857,0.007979138650176028
54.285714285714285,0.0083176003168103
54.4,0.00866665472160063
54.51428571428571,0.00895470412344584
54.628571428571426,0.009142464126372433
54.74285714285714,0.009232055473013765
54.857142857142854,0.009254565363348446
54.97142857142857,0.009247443167778186
55.08571428571428,0.0092377057637286
