Frequency,PSD
6.057142857142857,0.17011708995520053
6.171428571428571,0.17311931966282168
6.285714285714286,0.17904282145406758
6.3999999999999995,0.18765427643241744
6.514285714285714,0.19847894943448124
6.628571428571428,0.210779378861213
6.742857142857143,0.22367312719819607
6.857142857142857,0.23639177681650198
6.9714285714285715,0.24858598917242547
7.085714285714285,0.26051586544390065
7.2,0.2729862966178036
7.314285714285714,0.2869970618828832
7.428571428571428,0.3032227536629614
7.542857142857143,0.32154340725094965
7.657142857142857,0.34086241479286494
7.771428571428571,0.3593623937816442
7.885714285714285,0.37518150141394807
8.0,0.3872914424306729
8.114285714285714,0.3962094711233416
8.228571428571428,0.404178223676548
8.342857142857143,0.4146425122361652
8.457142857142857,0.43116921136652464
8.571428571428571,0.4562284744175784
8.685714285714285,0.4903280855537667
8.799999999999999,0.531835167151341
8.914285714285715,0.5775330138664568
9.028571428571428,0.6236964171287764
9.142857142857142,0.6673238166594035
9.257142857142856,0.707148197727021
9.371428571428572,0.7441208536278655
9.485714285714286,0.7811883490789511
9.6,0.82235312202494
9.714285714285714,0.8712157830430254
9.828571428571427,0.92940635186901
9.942857142857143,0.9954408880733072
10.057142857142857,1.0644864805899084
10.17142857142857,1.129227568510594
10.285714285714285,1.181575657525795
10.4,1.2145713521702715
10.514285714285714,1.2237436929420322
10.628571428571428,1.207511601437439
10.742857142857142,1.1667555480986143
10.857142857142858,1.104090749537172
10.971428571428572,1.0233597909731158
11.085714285714285,0.9294762361365942
11.2,0.8283295848369108
11.314285714285713,0.7263547311188809
11.428571428571429,0.6296433822589165
11.542857142857143,0.5428796320179075
11.657142857142857,0.4685836894007372
11.77142857142857,0.4070081122964939
11.885714285714286,0.3566830659026448
12.0,0.3153061491136575
12.114285714285714,0.2805873469422228
12.228571428571428,0.2507825910873064
12.342857142857142,0.22485316435535277
12.457142857142857,0.20234471011877445
12.571428571428571,0.18313573012216106
12.685714285714285,0.16718204148784024
12.799999999999999,0.1543299962484526
12.914285714285715,0.14422409606585337
13.028571428571428,0.13630614419152506
13.142857142857142,0.12988951022930084
13.257142857142856,0.12428465659838128
13.371428571428572,0.11894336253200372
13.485714285714286,0.11357842370884647
13.6,0.10821253588437313
13.714285714285714,0.10312793297315734
13.828571428571427,0.09872852980839475
13.942857142857143,0.09536908254816334
14.057142857142857,0.09322238665568017
14.17142857142857,0.09223293651336444
14.285714285714285,0.09215965695640885
14.4,0.09267220197974713
14.514285714285714,0.09345467264183113
14.628571428571428,0.09428341879440263
14.742857142857142,0.09506441104709132
14.857142857142856,0.09582833117072456
14.971428571428572,0.09668856553696253
15.085714285714285,0.09777445018361808
15.2,0.09916032411626675
15.314285714285713,0.1008151077732537
15.428571428571429,0.10259250459561967
15.542857142857143,0.10426896499110343
15.657142857142857,0.10561971541257402
15.77142857142857,0.106507733759622
15.885714285714284,0.10695196774426063
16.0,0.10714495579067992
16.114285714285714,0.10740857140651633
16.228571428571428,0.10810323221382634
16.34285714285714,0.10952565640737616
16.457142857142856,0.11183053936651557
16.57142857142857,0.11499416065036325
16.685714285714287,0.11881842222420491
16.8,0.12296617352027378
16.914285714285715,0.12702142348631565
17.02857142857143,0.1305678668175478
17.142857142857142,0.13326872117492017
17.257142857142856,0.13491976908552544
17.37142857142857,0.13545252284658743
17.485714285714284,0.13488960269725925
17.599999999999998,0.13328343332975437
17.714285714285715,0.13067941304858366
17.82857142857143,0.12712733024398612
17.942857142857143,0.12273287757179813
18.057142857142857,0.11771660105093008
18.17142857142857,0.11244357153215276
18.285714285714285,0.10740072911636382
18.4,0.1031192450637134
18.514285714285712,0.1000582601555432
18.628571428571426,0.09848156470115926
18.742857142857144,0.09836781411583582
18.857142857142858,0.0993914885629845
18.97142857142857,0.10099099238519864
19.085714285714285,0.10250733651726282
19.2,0.10334838294067822
19.314285714285713,0.10312619377147017
19.428571428571427,0.10173114345197189
19.54285714285714,0.09933273092115188
19.657142857142855,0.09631705226707943
19.771428571428572,0.09317971927212043
19.885714285714286,0.09039798239539516
20.0,0.08831347131709222
20.114285714285714,0.08706173020424007
20.228571428571428,0.08657366149248724
20.34285714285714,0.08664354990764254
20.457142857142856,0.08702428433872642
20.57142857142857,0.08749783708752942
20.685714285714287,0.08789023683026899
20.8,0.08804146022896829
20.914285714285715,0.08777169193154774
21.02857142857143,0.0868839176349902
21.142857142857142,0.08521191875243683
21.257142857142856,0.08268710810778569
21.37142857142857,0.07938290235067194
21.485714285714284,0.07550907585794306
21.599999999999998,0.07135785321356157
21.714285714285715,0.06722781203798095
21.82857142857143,0.06335808472954325
21.942857142857143,0.059894621481780735
22.057142857142857,0.05689219125963825
22.17142857142857,0.05434069479414009
22.285714285714285,0.05219771375419658
22.4,0.05041123512773097
22.514285714285712,0.04892454263591125
22.628571428571426,0.04766590319436639
22.742857142857144,0.04653492394031628
22.857142857142858,0.04540086656619985
22.97142857142857,0.04412273688566734
23.085714285714285,0.04258818243780511
23.2,0.040755238550677156
23.314285714285713,0.03867641628497662
23.428571428571427,0.03649211068863219
23.54285714285714,0.0343950676483194
23.657142857142855,0.03258012400553665
23.771428571428572,0.031196740246843793
23.885714285714286,0.03031655860522562
24.0,0.029920539876397916
24.114285714285714,0.02990567089138871
24.228571428571428,0.030109928505145846
24.34285714285714,0.03035209048074941
24.457142857142856,0.030477474206327248
24.57142857142857,0.030394701180729046
24.685714285714283,0.03008867465623334
24.8,0.029604591837599163
24.914285714285715,0.02901252388842728
25.02857142857143,0.02837187021525904
25.142857142857142,0.027712524492470202
25.257142857142856,0.02703694744469126
25.37142857142857,0.026334468854214196
25.485714285714284,0.025595239507134777
25.599999999999998,0.024817074734913257
25.71428571428571,0.024006686326199893
25.82857142857143,0.023179815189551152
25.942857142857143,0.022361504988551544
26.057142857142857,0.021583535734090737
26.17142857142857,0.020876298566116277
26.285714285714285,0.02025722827792339
26.4,0.019722511005146468
26.514285714285712,0.01924842169166127
26.628571428571426,0.01880297589462629
26.742857142857144,0.018361729520244993
26.857142857142858,0.01791862526320185
26.97142857142857,0.017485948326805296
27.085714285714285,0.017084516476462967
27.2,0.016731299283374093
27.314285714285713,0.016432646203480464
27.428571428571427,0.016186741719978723
27.54285714285714,0.015992174233666615
27.657142857142855,0.015855315526494027
27.771428571428572,0.015790288220304576
27.885714285714286,0.01581065406727786
28.0,0.01591779543777368
28.114285714285714,0.016093432346182313
28.228571428571428,0.016301429695507113
28.34285714285714,0.016498747217013564
28.457142857142856,0.016650502854430926
28.57142857142857,0.0167424263821824
28.685714285714283,0.016785941729719672
28.8,0.016814957945148833
28.914285714285715,0.016876648433872214
29.02857142857143,0.017019581921310204
29.142857142857142,0.01728191473060634
29.257142857142856,0.017681452278349618
29.37142857142857,0.0182092409536704
29.485714285714284,0.018828523743603696
29.599999999999998,0.019480156036137956
29.71428571428571,0.02009348805064834
29.82857142857143,0.020599414276418374
29.942857142857143,0.02094156954267819
30.057142857142857,0.021083239508886253
30.17142857142857,0.02101028805441635
30.285714285714285,0.020732145304321273
30.4,0.02028227932688216
30.514285714285712,0.01971709455043466
30.628571428571426,0.01910995103167262
30.74285714285714,0.01853730682579643
30.857142857142858,0.01805777897276644
30.97142857142857,0.017690659944140256
31.085714285714285,0.017404433946696822
31.2,0.017124346429085485
31.314285714285713,0.016760150387237854
31.428571428571427,0.016244303411334617
31.54285714285714,0.015563631969552722
31.657142857142855,0.014769119161596794
31.77142857142857,0.013959021413806828
31.885714285714286,0.01324404587243824
32.0,0.012711685889232579
32.114285714285714,0.01240525502143138
32.22857142857143,0.01232347561820233
32.34285714285714,0.012435359425820768
32.457142857142856,0.012699135937198486
32.57142857142857,0.013075307145078222
32.68571428571428,0.013529858868443233
32.8,0.014029710329790526
32.91428571428571,0.01453562510141337
33.028571428571425,0.014997713428174783
33.14285714285714,0.015356626104518515
33.25714285714285,0.015550969591717522
33.371428571428574,0.015529207150412502
33.48571428571429,0.015262757125987993
33.6,0.014756317006873307
33.714285714285715,0.01405167566180558
33.82857142857143,0.013222561835937778
33.94285714285714,0.012360626341111385
34.05714285714286,0.01155615122976972
34.17142857142857,0.01088001621481034
34.285714285714285,0.010373629698441387
34.4,0.01004990759647936
34.51428571428571,0.00990264545232323
34.628571428571426,0.009917506224559796
34.74285714285714,0.010078256584880811
34.857142857142854,0.010366405565251778
34.97142857142857,0.01075750323202994
35.08571428571428,0.011219303000873234
35.199999999999996,0.01171477094786731
35.31428571428572,0.012208747065318265
35.42857142857143,0.012674248011551346
35.542857142857144,0.013094761483278716
35.65714285714286,0.013461697706723827
35.77142857142857,0.013769164807063038
35.885714285714286,0.014009447015686778
36.0,0.014171571109023033
36.114285714285714,0.01424327106579373
36.22857142857143,0.014215079484797204
36.34285714285714,0.014084931834929692
36.457142857142856,0.013862046878969091
36.57142857142857,0.013568976470983589
36.68571428571428,0.013240446397323264
36.8,0.01291788776646927
36.91428571428571,0.012640269725208602
37.028571428571425,0.012434378190323891
37.14285714285714,0.012308997961021462
37.25714285714285,0.012255898820569565
37.371428571428574,0.01225670471105295
37.48571428571429,0.012291347980334665
37.6,0.012343432226160866
37.714285714285715,0.012400584270133238
37.82857142857143,0.012451445586941143
37.94285714285714,0.012482729896177137
38.05714285714286,0.01247902425159745
38.17142857142857,0.012425971862633134
38.285714285714285,0.01231569665986331
38.4,0.012152351949090541
38.51428571428571,0.011955300247853363
38.628571428571426,0.011757715023757307
38.74285714285714,0.011599765465329714
38.857142857142854,0.011517898940534529
38.97142857142857,0.011533887748877973
39.08571428571428,0.011647759934380287
39.199999999999996,0.011837047001455811
39.31428571428571,0.012062048860435982
39.42857142857143,0.012274747725406843
39.542857142857144,0.012428536156565344
39.65714285714286,0.012486670873326815
39.77142857142857,0.012428272762756279
39.885714285714286,0.012251165608659402
40.0,0.011971161217948115
40.114285714285714,0.01161808663918078
40.22857142857143,0.011229802857532268
40.34285714285714,0.010845909127951794
40.457142857142856,0.010502252665692642
40.57142857142857,0.010226297206502267
40.68571428571428,0.010032999630704247
40.8,0.009921637959016847
40.91428571428571,0.009875233947843065
41.028571428571425,0.009864340068870846
41.14285714285714,0.009855270029365036
41.25714285714285,0.009820213391115551
41.371428571428574,0.009745070114370017
41.48571428571429,0.009631792878061082
41.6,0.009495173381551921
41.714285714285715,0.009357108463663085
41.82857142857143,0.009241994657835944
41.94285714285714,0.009174535873405679
42.05714285714286,0.009178020229678084
42.17142857142857,0.009270060471573301
42.285714285714285,0.009455138560092703
42.4,0.009717221977483526
42.51428571428571,0.01001778508511327
42.628571428571426,0.010302677733589206
42.74285714285714,0.010516502785450521
42.857142857142854,0.010618817457694461
42.97142857142857,0.010595437658640936
43.08571428571428,0.0104607650343593
43.199999999999996,0.010251371716379448
43.31428571428571,0.010014497294433598
43.42857142857143,0.009796177963952962
43.542857142857144,0.009632532967736399
43.65714285714286,0.009545378823004283
43.77142857142857,0.009541205087749291
43.885714285714286,0.00961171150332799
44.0,0.00973487436791437
44.114285714285714,0.009877112842924092
44.22857142857143,0.009998095288607144
44.34285714285714,0.010058957205206357
44.457142857142856,0.010032464126291786
44.57142857142857,0.009911554600666702
44.68571428571428,0.009712473821532732
44.8,0.009470802448950856
44.91428571428571,0.009231870216045589
45.028571428571425,0.00903935491739159
45.14285714285714,0.008926018846816028
45.25714285714285,0.008908722885537705
45.37142857142857,0.008987485957938792
45.48571428571429,0.009146997859663365
45.6,0.009359299287093913
45.714285714285715,0.009587606241380234
45.82857142857143,0.00979199800471022
45.94285714285714,0.009936956191995375
46.05714285714286,0.009999062484420871
46.17142857142857,0.009972148832383903
46.285714285714285,0.009868000939234985
46.4,0.009712811989214726
46.51428571428571,0.009541211264192771
46.628571428571426,0.009389662217735153
46.74285714285714,0.009289936019541183
46.857142857142854,0.009262851047979836
46.97142857142857,0.009313254228334539
47.08571428571428,0.009428229163766276
47.199999999999996,0.009580094965618815
47.31428571428571,0.009733673572762582
47.42857142857143,0.009855187650140039
47.542857142857144,0.009919834716377769
47.65714285714286,0.009916629419840534
47.77142857142857,0.009850766659403688
47.885714285714286,0.009743904323004865
48.0,0.009631665018806928
48.114285714285714,0.009557154554087866
48.22857142857143,0.009560730485960123
48.34285714285714,0.009668870711753689
48.457142857142856,0.009886541805315945
48.57142857142857,0.01019639606292497
48.68571428571428,0.01056508895752287
48.8,0.01095416779506259
48.91428571428571,0.011331870930852691
49.028571428571425,0.011682417123622862
49.14285714285714,0.01200965117322736
49.25714285714285,0.012332140681798628
49.37142857142857,0.012668706887920711
49.48571428571429,0.013018309468824832
49.6,0.013344327129516206
49.714285714285715,0.01357540104725396
49.82857142857143,0.013628748167648516
49.94285714285714,0.013448688302232378
50.05714285714286,0.013041208516595414
50.17142857142857,0.012484026593599137
50.285714285714285,0.011903556753389808
50.4,0.011428502662503818
50.51428571428571,0.011142677315278376
50.628571428571426,0.01105912245121015
50.74285714285714,0.011125016331961453
50.857142857142854,0.011250914199478573
50.97142857142857,0.011347823009518884
51.08571428571428,0.011355537158187984
51.199999999999996,0.011253354525386254
51.31428571428571,0.011054169447045264
51.42857142857142,0.010789810622492645
51.542857142857144,0.010496892654783428
51.65714285714286,0.0102090293982878
51.77142857142857,0.009955791127341903
51.885714285714286,0.009764533386733916
52.0,0.009660286389757603
52.114285714285714,0.009661276614363947
52.22857142857143,0.009771497107347654
52.34285714285714,0.009974567655160724
52.457142857142856,0.010233279919289203
52.57142857142857,0.010496694926555696
52.68571428571428,0.01071292285831713
52.8,0.010842844936471835
52.91428571428571,0.0108695854325443
53.028571428571425,0.010800669178972277
53.14285714285714,0.010663186272683124
53.25714285714285,0.0104949763916054
53.37142857142857,0.010335513828748942
53.48571428571429,0.010218890493627404
53.6,0.01016929537620145
53.714285714285715,0.010198144551754308
53.82857142857143,0.010302254347090523
53.94285714285714,0.010463690699240913
54.05714285714286,0.01065279346010865
54.17142857142857,0.010835142340961546
54.285714285714285,0.010980985386122898
54.4,0.011073498352150003
54.51428571428571,0.011112109315257995
54.628571428571426,0.01110951600367572
54.74285714285714,0.011084415649143985
54.857142857142854,0.01105399346687635
54.97142857142857,0.011029610108507488
55.08571428571428,0.011016608280279465
