Frequency,PSD
6.057142857142857,0.39058966843314935
6.171428571428571,0.39661992499792936
6.285714285714286,0.40613823984365527
6.3999999999999995,0.41580824408674666
6.514285714285714,0.4234769807973815
6.628571428571428,0.4287926890784955
6.742857142857143,0.432510976001299
6.857142857142857,0.4359577265475041
6.9714285714285715,0.44125217705930697
7.085714285714285,0.4510451941425446
7.2,0.4672139089469717
7.314285714285714,0.4906928649084235
7.428571428571428,0.5238153000791208
7.542857142857143,0.5718228031062402
7.657142857142857,0.6402333964598987
7.771428571428571,0.7309524605914184
7.885714285714285,0.8413767009891695
8.0,0.9660650435970506
8.114285714285714,1.10117211545852
8.228571428571428,1.2535617517975606
8.342857142857143,1.4450143138125
8.457142857142857,1.6931100085786843
8.571428571428571,1.9750466730509164
8.685714285714285,2.2171421321282687
8.799999999999999,2.337930407837267
8.914285714285715,2.3074928006849875
9.028571428571428,2.1588796784405915
9.142857142857142,1.9453177816039582
9.257142857142856,1.7001763481726886
9.371428571428572,1.4390373066437825
9.485714285714286,1.1816466623754731
9.6,0.9563817966924348
9.714285714285714,0.7860321013971266
9.828571428571427,0.6767686308654554
9.942857142857143,0.6192469039030095
10.057142857142857,0.5952543572938034
10.17142857142857,0.5845121730340659
10.285714285714285,0.5705246123546027
10.4,0.5436806885293409
10.514285714285714,0.5007931288021286
10.628571428571428,0.44347354689081403
10.742857142857142,0.37744926613487106
10.857142857142858,0.31168343750137867
10.971428571428572,0.25539010066392465
11.085714285714285,0.2140438368126442
11.2,0.18756839415072452
11.314285714285713,0.17177662597691407
11.428571428571429,0.16118739662511777
11.542857142857143,0.1513179505452803
11.657142857142857,0.1399418355203278
11.77142857142857,0.1272773890137533
11.885714285714286,0.11510977021308194
12.0,0.10525482697262434
12.114285714285714,0.09819505035079024
12.228571428571428,0.0927177869031332
12.342857142857142,0.08683246610489381
12.457142857142857,0.07931784884431461
12.571428571428571,0.07069204576243807
12.685714285714285,0.06288451246331395
12.799999999999999,0.05798342862289979
12.914285714285715,0.057027482123879564
13.028571428571428,0.05954560631642308
13.142857142857142,0.06390973549515623
13.257142857142856,0.06807381510290111
13.371428571428572,0.07023189281822224
13.485714285714286,0.06928929146212069
13.6,0.06526863854692601
13.714285714285714,0.05950162164568011
13.828571428571427,0.05416830829350755
13.942857142857143,0.05116702590439333
14.057142857142857,0.0510969996904151
14.17142857142857,0.05314350951805499
14.285714285714285,0.055775458770614995
14.4,0.057591280371744706
14.514285714285714,0.05785339653392703
14.628571428571428,0.05659227055100044
14.742857142857142,0.054337810793963756
14.857142857142856,0.051734582020454264
14.971428571428572,0.049381463838818945
15.085714285714285,0.047936744660255
15.2,0.048100905089193305
15.314285714285713,0.05018359102296757
15.428571428571429,0.05361706411041081
15.542857142857143,0.057056225139076225
15.657142857142857,0.05912180184839757
15.77142857142857,0.059220925890790116
15.885714285714284,0.05788660462062747
16.0,0.056418803393199754
16.114285714285714,0.05604956257850126
16.228571428571428,0.0572873318193198
16.34285714285714,0.059967652005417295
16.457142857142856,0.06374344573014566
16.57142857142857,0.06825236975998465
16.685714285714287,0.07273459900344442
16.8,0.07578025326611988
16.914285714285715,0.07589469648511044
17.02857142857143,0.07256430296923631
17.142857142857142,0.06680875658911367
17.257142857142856,0.06070918772053623
17.37142857142857,0.05632423200485767
17.485714285714284,0.054688072405863875
17.599999999999998,0.055335766864968376
17.714285714285715,0.05657714037689943
17.82857142857143,0.0564914086653165
17.942857142857143,0.054127786992482926
18.057142857142857,0.050075892666245035
18.17142857142857,0.04596162478391893
18.285714285714285,0.043278638442824674
18.4,0.042455466955010214
18.514285714285712,0.042772242279555846
18.628571428571426,0.04303403317817511
18.742857142857144,0.04239785005732273
18.857142857142858,0.0407572704406026
18.97142857142857,0.038541551701578726
19.085714285714285,0.036290932204615475
19.2,0.03443061939631953
19.314285714285713,0.033296523368709634
19.428571428571427,0.033203537886212234
19.54285714285714,0.0343879854570867
19.657142857142855,0.03678000214207754
19.771428571428572,0.03976415510259682
19.885714285714286,0.04228673620006239
20.0,0.04344829310226821
20.114285714285714,0.0431581847746065
20.228571428571428,0.04224087204510492
20.34285714285714,0.04184233312696113
20.457142857142856,0.04258809848007035
20.57142857142857,0.04416351503091672
20.685714285714287,0.04566861234015836
20.8,0.046428766478977215
20.914285714285715,0.04648502597037093
21.02857142857143,0.04629733542432347
21.142857142857142,0.04602393491358156
21.257142857142856,0.045190487615907174
21.37142857142857,0.04312874011407671
21.485714285714284,0.03969108351617575
21.599999999999998,0.03544191917823532
21.714285714285715,0.031219700340097627
21.82857142857143,0.02770666468016124
21.942857142857143,0.02539862073635518
22.057142857142857,0.024679997593560033
22.17142857142857,0.025681577870299007
22.285714285714285,0.028065580906582024
22.4,0.031011266305999756
22.514285714285712,0.0334484019506491
22.628571428571426,0.034476797898943166
22.742857142857144,0.03383081827313837
22.857142857142858,0.032047929374701335
22.97142857142857,0.030129664684145345
23.085714285714285,0.028990693750576415
23.2,0.029126342786238716
23.314285714285713,0.030535873848838817
23.428571428571427,0.032728479366258154
23.54285714285714,0.034844958642888536
23.657142857142855,0.03602834381474838
23.771428571428572,0.03588629623142784
23.885714285714286,0.034625305823678225
24.0,0.03270720714940472
24.114285714285714,0.03043903537744145
24.228571428571428,0.027966845505452347
24.34285714285714,0.025557796316835222
24.457142857142856,0.02366709285889468
24.57142857142857,0.022661320381960393
24.685714285714283,0.022584848783349522
24.8,0.02322008860395343
24.914285714285715,0.024227791501694327
25.02857142857143,0.025167052504100475
25.142857142857142,0.0255616779328791
25.257142857142856,0.02515473537375211
25.37142857142857,0.02411644890033458
25.485714285714284,0.022947255123900136
25.599999999999998,0.022188877986337077
25.71428571428571,0.0221970635961272
25.82857142857143,0.023012059064196635
25.942857142857143,0.024273448440958932
26.057142857142857,0.02531034759197366
26.17142857142857,0.02553377179936668
26.285714285714285,0.024866265013359014
26.4,0.023749990455436937
26.514285714285712,0.02271872430148813
26.628571428571426,0.02201443271231527
26.742857142857144,0.02156702335368856
26.857142857142858,0.021172907548192253
26.97142857142857,0.020630046806852355
27.085714285714285,0.01983851674042946
27.2,0.018903418405857023
27.314285714285713,0.0181013638537567
27.428571428571427,0.017656743095627786
27.54285714285714,0.017562821220078777
27.657142857142855,0.017663088534488502
27.771428571428572,0.01786488199424428
27.885714285714286,0.018202248767699047
28.0,0.01869528107818314
28.114285714285714,0.019222726518262963
28.228571428571428,0.019587136654231105
28.34285714285714,0.01968886678748382
28.457142857142856,0.019597217402874727
28.57142857142857,0.019458172593343894
28.685714285714283,0.019365381157143848
28.8,0.019309904483723297
28.914285714285715,0.019208805315321122
29.02857142857143,0.01896891478683903
29.142857142857142,0.018541653498308216
29.257142857142856,0.017926958858706543
29.37142857142857,0.017154219910805492
29.485714285714284,0.01631025702870368
29.599999999999998,0.015570720754307082
29.71428571428571,0.015132693595205828
29.82857142857143,0.015106538690477716
29.942857142857143,0.0155010775623791
30.057142857142857,0.016247215624663046
30.17142857142857,0.017122900169100487
30.285714285714285,0.017690287235258253
30.4,0.01749828360822672
30.514285714285712,0.016470443389442067
30.628571428571426,0.015042141110880512
30.74285714285714,0.013858325604578713
30.857142857142858,0.013383418054994854
30.97142857142857,0.013794461119907904
31.085714285714285,0.015065340652972683
31.2,0.01697416080384102
31.314285714285713,0.019062892871032966
31.428571428571427,0.020765394097215242
31.54285714285714,0.021696900950079152
31.657142857142855,0.02184894869276454
31.77142857142857,0.02152401977472145
31.885714285714286,0.021108166658378117
32.0,0.020880037598425542
32.114285714285714,0.02094868419666617
32.22857142857143,0.021269057177866924
32.34285714285714,0.021656326167404587
32.457142857142856,0.02183654528162732
32.57142857142857,0.0216141047225062
32.68571428571428,0.021034127781104032
32.8,0.020301783531606332
32.91428571428571,0.019514414476074767
33.028571428571425,0.018561841119828254
33.14285714285714,0.01734434547794123
33.25714285714285,0.01602543682379418
33.371428571428574,0.01499764366988104
33.48571428571429,0.014608465353114669
33.6,0.014933944229327152
33.714285714285715,0.015751658750381408
33.82857142857143,0.01666272906609334
33.94285714285714,0.017287273287665716
34.05714285714286,0.017460839194778102
34.17142857142857,0.017295709988242515
34.285714285714285,0.01702222871436014
34.4,0.01674859651115274
34.51428571428571,0.016396050211095782
34.628571428571426,0.015868217189782714
34.74285714285714,0.015227700318563464
34.857142857142854,0.014659055281551878
34.97142857142857,0.014274994540393483
35.08571428571428,0.014001323539704008
35.199999999999996,0.013661651386325914
35.31428571428572,0.013154170153842548
35.42857142857143,0.012537048893412832
35.542857142857144,0.011965264457013283
35.65714285714286,0.011573928861533102
35.77142857142857,0.01141889861675667
35.885714285714286,0.011491084036051796
36.0,0.011753026925169215
36.114285714285714,0.012155618679644788
36.22857142857143,0.012621098270657579
36.34285714285714,0.013011810588824339
36.457142857142856,0.013155485612153326
36.57142857142857,0.012973757855856104
36.68571428571428,0.012612499397343834
36.8,0.01239112419667028
36.91428571428571,0.01255596805760445
37.028571428571425,0.013067894523334601
37.14285714285714,0.013643217476760712
37.25714285714285,0.013994079612080376
37.371428571428574,0.014020861078987283
37.48571428571429,0.01380783121326108
37.6,0.01349476775174845
37.714285714285715,0.013173545358105441
37.82857142857143,0.012865901403721122
37.94285714285714,0.012551066322879502
38.05714285714286,0.01221623823721791
38.17142857142857,0.011904171729096606
38.285714285714285,0.011690874708181805
38.4,0.01157784031607467
38.51428571428571,0.011431301117913836
38.628571428571426,0.011094150812459786
38.74285714285714,0.010571984991566063
38.857142857142854,0.010073658038313345
38.97142857142857,0.009860563347070358
39.08571428571428,0.01007211497018948
39.199999999999996,0.010668219864959562
39.31428571428571,0.011465661587366645
39.42857142857143,0.012197660636822144
39.542857142857144,0.012600116673926805
39.65714285714286,0.01254225427973036
39.77142857142857,0.012130311974423012
39.885714285714286,0.01166527296875757
40.0,0.011439690700088953
40.114285714285714,0.011537586459771133
40.22857142857143,0.011834306520913057
40.34285714285714,0.012175050693055123
40.457142857142856,0.012492254678044303
40.57142857142857,0.012731916386965109
40.68571428571428,0.012761718856763762
40.8,0.012463008290859837
40.91428571428571,0.011907761299616498
41.028571428571425,0.011362284796110029
41.14285714285714,0.011082217204811281
41.25714285714285,0.011127424198648336
41.371428571428574,0.01137857328816421
41.48571428571429,0.011683052852926564
41.6,0.01193584738571355
41.714285714285715,0.012046329772356283
41.82857142857143,0.011925883110181331
41.94285714285714,0.01157088758478609
42.05714285714286,0.011116518466018797
42.17142857142857,0.010747077258827214
42.285714285714285,0.010564469933107746
42.4,0.010575025020673095
42.51428571428571,0.010765714699077705
42.628571428571426,0.011124267811868559
42.74285714285714,0.01157857430261911
42.857142857142854,0.011967614411865607
42.97142857142857,0.01211348243007003
43.08571428571428,0.01193572466127574
43.199999999999996,0.011503655358351572
43.31428571428571,0.010984454974135104
43.42857142857143,0.010534394743364007
43.542857142857144,0.010218970987571574
43.65714285714286,0.01001280649557143
43.77142857142857,0.009864466473574616
43.885714285714286,0.009772040630589838
44.0,0.00981609180832355
44.114285714285714,0.010115105131298374
44.22857142857143,0.010708703740069759
44.34285714285714,0.011455536210759636
44.457142857142856,0.01207168362120708
44.57142857142857,0.012306261491056746
44.68571428571428,0.012075482926307196
44.8,0.011435882115288995
44.91428571428571,0.010503588894185236
45.028571428571425,0.009447027483772814
45.14285714285714,0.00848777289575377
45.25714285714285,0.007814562852125609
45.37142857142857,0.0074903297969442645
45.48571428571429,0.0074662350006146965
45.6,0.007653400042154581
45.714285714285715,0.007945397870341656
45.82857142857143,0.008213017298102645
45.94285714285714,0.008356698384661989
46.05714285714286,0.008386636229738549
46.17142857142857,0.008411133868949334
46.285714285714285,0.008521186375802245
46.4,0.008707857684571569
46.51428571428571,0.008901180257827115
46.628571428571426,0.009050857295422887
46.74285714285714,0.009146579661654136
46.857142857142854,0.009205149853387764
46.97142857142857,0.009287948125481832
47.08571428571428,0.009509997372903317
47.199999999999996,0.009967719358462074
47.31428571428571,0.010614470654759314
47.42857142857143,0.011208958498649675
47.542857142857144,0.011441093126681533
47.65714285714286,0.011186001212565232
47.77142857142857,0.010656092095910497
47.885714285714286,0.010260994909926536
48.0,0.010289065556550243
48.114285714285714,0.010722749010487734
48.22857142857143,0.011328291977363786
48.34285714285714,0.011869905519222103
48.457142857142856,0.012240160961465523
48.57142857142857,0.012450386720829217
48.68571428571428,0.012551250553332779
48.8,0.012557305100835693
48.91428571428571,0.01241184445742367
49.028571428571425,0.012018558818559977
49.14285714285714,0.011341241591046946
49.25714285714285,0.010497287257799772
49.37142857142857,0.009738924229301426
49.48571428571429,0.009322560646285474
49.6,0.009399473713673737
49.714285714285715,0.010020744350445318
49.82857142857143,0.011166979442742324
49.94285714285714,0.012661820505155668
50.05714285714286,0.014054560900041795
50.17142857142857,0.014756460017777615
50.285714285714285,0.014456558388895223
50.4,0.013391969409943853
50.51428571428571,0.012153753377068031
50.628571428571426,0.011273987247264574
50.74285714285714,0.010993877609519814
50.857142857142854,0.01125899891767524
50.97142857142857,0.011799839238781187
51.08571428571428,0.012265309444237508
51.199999999999996,0.012401249575968071
51.31428571428571,0.012172739363269607
51.42857142857142,0.01174068082528884
51.542857142857144,0.011319404666841197
51.65714285714286,0.011031071471351893
51.77142857142857,0.010871387010724102
51.885714285714286,0.01079525587119061
52.0,0.01080340712775215
52.114285714285714,0.010923354462227185
52.22857142857143,0.011125063474722587
52.34285714285714,0.0112924613492036
52.457142857142856,0.011291885352287308
52.57142857142857,0.011065969125673893
52.68571428571428,0.010671862652032902
52.8,0.010253894960368621
52.91428571428571,0.009986809049156022
53.028571428571425,0.01000559780536807
53.14285714285714,0.010320393351882557
53.25714285714285,0.010766018031314648
53.37142857142857,0.011074174796312975
53.48571428571429,0.011051468039605345
53.6,0.010700185608500121
53.714285714285715,0.01017201463366884
53.82857142857143,0.009641575859278884
53.94285714285714,0.009233678256446994
54.05714285714286,0.009012656518704308
54.17142857142857,0.008978163151717487
54.285714285714285,0.009067765289488224
54.4,0.009202033465309614
54.51428571428571,0.009353878422850508
54.628571428571426,0.009560818589433378
54.74285714285714,0.009847142595243536
54.857142857142854,0.010154570211165831
54.97142857142857,0.010385824397498137
55.08571428571428,0.010496250610057562
