Frequency,PSD
6.0,0.45266679309690294
6.08,0.45246756904626995
6.16,0.45207684209556287
6.24,0.4515100015592028
6.32,0.4507899407700778
6.4,0.44994667923110987
6.48,0.4490166492834522
6.5600000000000005,0.44804153820933057
6.640000000000001,0.44706662222516264
6.72,0.44613860180951914
6.8,0.4453030372196327
6.88,0.4446015738415029
6.96,0.4440692225472146
7.04,0.4437320050517621
7.12,0.44360527688182133
7.2,0.4436929957040676
7.28,0.44398811263545157
7.36,0.4444741385988482
7.44,0.44512779300865113
7.5200000000000005,0.4459224982993162
7.6000000000000005,0.4468323621178116
7.68,0.44783620787950507
7.76,0.44892118667127334
7.84,0.4500855341977176
7.92,0.4513401219861351
8.0,0.4527085807893729
8.08,0.4542259284855702
8.16,0.45593579422882274
8.24,0.45788647501724267
8.32,0.4601261736011193
8.4,0.46269783695289046
8.48,0.4656340384485546
8.56,0.4689523271863425
8.64,0.47265141243202047
8.72,0.47670847101839364
8.8,0.48107777227903437
8.88,0.4856907189713945
8.96,0.49045731106562634
9.040000000000001,0.4952689564635076
9.120000000000001,0.5000024801657401
9.200000000000001,0.5045251210215908
9.28,0.508700252621155
9.36,0.5123935226869384
9.44,0.515479075564606
9.52,0.517845508569308
9.6,0.519401219041462
9.68,0.5200788282964071
9.76,0.5198384223823542
9.84,0.5186694256601883
9.92,0.516591016052105
10.0,0.5136510915721773
10.08,0.5099238957344063
10.16,0.5055064938231615
10.24,0.5005143538933631
10.32,0.49507632041631955
10.4,0.4893292739425784
10.48,0.48341275083941015
10.56,0.47746376050479533
10.64,0.47161199272832366
10.72,0.46597556402560214
10.8,0.4606574154639403
10.88,0.45574244865505054
10.96,0.4512954699876438
11.040000000000001,0.4473600010462636
11.120000000000001,0.44395799875773384
11.200000000000001,0.44109050546223694
11.28,0.43873921236778296
11.36,0.436868869078023
11.44,0.4354304109620727
11.52,0.43436461303827933
11.6,0.433606024384225
11.68,0.43308690191084376
11.76,0.43274085568115855
11.84,0.4325059446702193
11.92,0.4323270212493199
12.0,0.43215720817778364
12.08,0.4319584919681984
12.16,0.4317015165421654
12.24,0.4313647459597655
12.32,0.43093322169906806
12.4,0.4303971600163118
12.48,0.42975061595786895
12.56,0.42899038683140467
12.64,0.42811524950111
12.72,0.4271255370792298
12.8,0.42602297752023555
12.88,0.4248106543372844
12.96,0.4234929195669417
13.040000000000001,0.4220750969740375
13.120000000000001,0.42056285837297036
13.200000000000001,0.41896123026868987
13.280000000000001,0.41727327877883863
13.36,0.41549861167623153
13.44,0.41363191049451403
13.52,0.41166174835017394
13.6,0.40956995062591495
13.68,0.40733171266829293
13.76,0.4049166051856301
13.84,0.4022904849139161
13.92,0.3994182014153275
14.0,0.396266869459321
14.08,0.3928093790690285
14.16,0.38902775769641607
14.24,0.38491599125611115
14.32,0.38048195580760535
14.4,0.3757482046431382
14.48,0.37075148437374555
14.56,0.36554100086344754
14.64,0.36017560128769877
14.72,0.35472016216808755
14.8,0.3492415581913242
14.88,0.34380462194861067
14.96,0.3384684867958879
15.040000000000001,0.3332836380289931
15.120000000000001,0.3282898927435873
15.200000000000001,0.3235154025604069
15.280000000000001,0.31897664484778754
15.36,0.3146792557272785
15.44,0.3106194772593134
15.52,0.3067859514503277
15.6,0.30316159786968894
15.68,0.2997253553869199
15.76,0.2964536413680636
15.84,0.29332146891902844
15.92,0.29030324809781094
16.0,0.2873733652344428
16.080000000000002,0.2845066740722211
16.16,0.28167903741539024
16.240000000000002,0.2788680288597006
16.32,0.27605384779524655
16.4,0.27322042898884963
16.48,0.2703566552642135
16.56,0.26745752281593643
16.64,0.26452507564920036
16.72,0.2615689258347876
16.8,0.2586062108304538
16.88,0.2556609027820814
16.96,0.25276246684177994
17.04,0.24994395214015738
17.12,0.24723967546244763
17.2,0.24468271133544794
17.28,0.24230242499155122
17.36,0.24012227423239868
17.44,0.23815806631625963
17.52,0.2364167954319167
17.6,0.234896116926816
17.68,0.23358444853675928
17.76,0.23246163665353775
17.84,0.23150009333346833
17.92,0.23066629838196862
18.0,0.2299225666258697
18.080000000000002,0.22922899596384214
18.16,0.22854552799407857
18.240000000000002,0.22783406185601512
18.32,0.22706055830759617
18.400000000000002,0.2261970543239637
18.48,0.22522348270559228
18.56,0.22412916425213428
18.64,0.22291382195177356
18.72,0.22158796693047492
18.8,0.2201725313476911
18.88,0.21869767601313
18.96,0.21720077653810055
19.04,0.21572368220358795
19.12,0.21430943333118055
19.2,0.21299870106989385
19.28,0.21182626460816287
19.36,0.21081785511698672
19.44,0.2099876691783244
19.52,0.20933678957329382
19.6,0.20885265678967024
19.68,0.20850962376849141
19.76,0.20827051479790326
19.84,0.20808901216011103
19.92,0.20791262324489454
20.0,0.2076859436496484
20.080000000000002,0.2073539299331764
20.16,0.20686492542705423
20.240000000000002,0.20617323590088082
20.32,0.20524111865913783
20.400000000000002,0.20404011827589635
20.48,0.20255174566749534
20.56,0.20076754840437933
20.64,0.19868865623970655
20.72,0.19632490701701474
20.8,0.19369366685200456
20.88,0.1908184582420327
20.96,0.18772750390172008
21.04,0.18445228504024888
21.12,0.1810262015155131
21.2,0.1774834076280173
21.28,0.17385788037904493
21.36,0.17018275601528188
21.44,0.1664899456179135
21.52,0.1628100126412524
21.6,0.15917226728293532
21.68,0.15560500798653112
21.76,0.15213582314509405
21.84,0.14879185952165042
21.92,0.14559996995577823
22.0,0.14258667152644086
22.080000000000002,0.139777874267939
22.16,0.13719837567686574
22.240000000000002,0.13487115228601598
22.32,0.13281651094626853
22.400000000000002,0.13105118435081697
22.48,0.12958746461126527
22.56,0.12843246441197778
22.64,0.12758757880949767
22.72,0.12704819546976198
22.8,0.1268036716707523
22.88,0.12683756769116666
22.96,0.12712810258179208
23.04,0.1276487827151154
23.12,0.12836914706551267
23.2,0.1292555752124628
23.28,0.13027211248032863
23.36,0.13138127855283674
23.44,0.13254483842258438
23.52,0.13372452537171348
23.6,0.13488271356609685
23.68,0.13598304260630334
23.76,0.13699099867614442
23.84,0.13787445779895643
23.92,0.13860419704418142
24.0,0.13915437966907143
24.080000000000002,0.1395030197820244
24.16,0.1396324302725872
24.240000000000002,0.1395296534132434
24.32,0.13918686601816546
24.400000000000002,0.13860174051702207
24.48,0.13777773106266708
24.560000000000002,0.13672424220015136
24.64,0.13545662970405775
24.72,0.13399598196068432
24.8,0.13236863797436477
24.88,0.13060541550378046
24.96,0.12874054892274975
25.04,0.12681036823285993
25.12,0.1248517838712094
25.2,0.12290067149870637
25.28,0.12099027199145088
25.36,0.11914973067664696
25.44,0.1174028945359472
25.52,0.11576746684233524
25.6,0.11425458774434431
25.68,0.11286887051586077
25.76,0.1116088813327464
25.84,0.11046801045695444
25.92,0.10943564898511851
26.0,0.10849856114051523
26.080000000000002,0.10764232936127449
26.16,0.10685274864539095
26.240000000000002,0.10611705697084167
26.32,0.10542490835513962
26.400000000000002,0.10476902184725004
26.48,0.10414547072292576
26.560000000000002,0.10355360858222916
26.64,0.1029956602529969
26.72,0.10247603298192501
26.8,0.1020004253168535
26.88,0.1015748257894766
26.96,0.10120449999258663
27.04,0.10089306253640418
27.12,0.10064171996865515
27.2,0.10044875303475796
27.28,0.10030928323655894
27.36,0.10021534161140899
27.44,0.1001562294030889
27.52,0.10011913334087832
27.6,0.1000899349779937
27.68,0.1000541360466374
27.76,0.09999781166334029
27.84,0.09990850145560776
27.92,0.0997759555733488
28.0,0.09959266764416441
28.080000000000002,0.09935414881944019
28.16,0.09905892420072623
28.240000000000002,0.09870826255932547
28.32,0.09830567932253816
28.400000000000002,0.09785627803725558
28.48,0.09736601379757162
28.560000000000002,0.0968409708237808
28.64,0.09628674383212035
28.72,0.09570799866919451
28.8,0.09510826307201822
28.88,0.09448996609377219
28.96,0.0938547087977264
29.04,0.09320371423426274
29.12,0.09253837663248153
29.2,0.09186081269233233
29.28,0.0911743149767824
29.36,0.09048361975694781
29.44,0.08979492796895445
29.52,0.08911565460808664
29.6,0.08845392349527559
29.68,0.08781786448994384
29.76,0.08721480253463006
29.84,0.086650447183394
29.92,0.08612819432251231
30.0,0.085648638089377
30.080000000000002,0.08520936270426589
30.16,0.08480504555999238
30.240000000000002,0.08442786052632345
30.32,0.08406813058215648
30.400000000000002,0.0837151475498003
30.48,0.0833580582742445
30.560000000000002,0.08298671326384141
30.64,0.08259238534503609
30.72,0.08216828978466834
30.8,0.08170986938329648
30.88,0.08121484307496632
30.96,0.08068304930810033
31.04,0.08011614132246886
31.12,0.07951720703897344
31.2,0.07889038992630255
31.28,0.07824057891214402
31.36,0.0775732167802376
31.44,0.07689425045654356
31.52,0.07621021694856105
31.6,0.07552842969165187
31.68,0.07485720583818015
31.76,0.07420605922708778
31.84,0.07358577906408452
31.92,0.07300832209436792
32.0,0.07248646608880445
32.08,0.07203320298517135
32.160000000000004,0.07166088767287733
32.24,0.07138019856073521
32.32,0.07119900331620291
32.4,0.07112125196838294
32.480000000000004,0.07114603499731195
32.56,0.0712669425306728
32.64,0.07147184079806015
32.72,0.07174314446208771
32.8,0.07205861182305191
32.88,0.07239262994421188
32.96,0.0727178958939641
33.04,0.07300734668954355
33.12,0.0732361518704686
33.2,0.07338356505527054
33.28,0.07343443787140631
33.36,0.07338023155216358
33.44,0.07321941503790937
33.52,0.07295720720558821
33.6,0.0726046961354544
33.68,0.07217744023228605
33.76,0.0716937149749584
33.84,0.07117260721891372
33.92,0.07063217136418247
34.0,0.07008784700732318
34.08,0.06955129841237839
34.160000000000004,0.06902977815519297
34.24,0.06852604897139666
34.32,0.0680388286914686
34.4,0.06756366242358881
34.480000000000004,0.06709408147374943
34.56,0.06662288484039383
34.64,0.06614337821480185
34.72,0.06565042569240244
34.800000000000004,0.06514120644686391
34.88,0.06461561604139124
34.96,0.06407630255148308
35.04,0.06352837418347212
35.12,0.06297885175654916
35.2,0.06243596238555227
35.28,0.06190837837795943
35.36,0.06140449844721066
35.44,0.06093184948197037
35.52,0.06049666026863759
35.6,0.06010362833403963
35.68,0.05975587195716226
35.76,0.059455035198437776
35.84,0.05920149719952447
35.92,0.05899462937318173
36.0,0.05883304545564941
36.08,0.05871479859092878
36.160000000000004,0.05863749463692118
36.24,0.058598309177449834
36.32,0.05859391457185929
36.4,0.0586203402153285
36.480000000000004,0.05867280189183141
36.56,0.05874554318646798
36.64,0.05883173265073602
36.72,0.05892345484740048
36.800000000000004,0.05901182236296588
36.88,0.05908722082867379
36.96,0.05913968185712804
37.04,0.059159361729536904
37.12,0.059137088776781206
37.2,0.059064931523733356
37.28,0.058936734151345205
37.36,0.0587485663658935
37.44,0.0584990413176687
37.52,0.05818946704292159
37.6,0.05782381266381531
37.68,0.05740848847878033
37.76,0.05695195708694139
37.84,0.056464208797493726
37.92,0.05595614699802114
38.0,0.055438936557892365
38.08,0.054923369986032575
38.160000000000004,0.05441930189584347
38.24,0.05393519299753849
38.32,0.053477791598469666
38.4,0.05305196515765581
38.480000000000004,0.052660678751317615
38.56,0.0523051032652804
38.64,0.05198482534265563
38.72,0.05169812466750137
38.800000000000004,0.051442282483353766
38.88,0.05121388805885005
38.96,0.05100911622899894
39.04,0.05082395782165189
39.12,0.05065439418378338
39.2,0.05049651567579401
39.28,0.0503465907364312
39.36,0.050201096248892116
39.44,0.05005672132780026
39.52,0.04991035568420372
39.6,0.04975907118629952
39.68,0.04960010208118959
39.76,0.04943082650931102
39.84,0.049248750129127966
39.92,0.04905149220928693
40.0,0.0488367753576705
40.08,0.04860242169075235
40.160000000000004,0.04834636000696517
40.24,0.04806664965044878
40.32,0.047761526591553666
40.4,0.047429475441866896
40.480000000000004,0.047069327677078075
40.56,0.046680381672632616
40.64,0.04626253501357352
40.72,0.04581641487482597
40.800000000000004,0.0453434890632989
40.88,0.044846139390540204
40.96,0.04432768090057668
41.04,0.04379231516847845
41.12,0.04324501298592723
41.2,0.04269133039219218
41.28,0.042137170995026306
41.36,0.04158851550334866
41.44,0.04105114506134
41.52,0.04053038729264154
41.6,0.0400309123362306
41.68,0.0395566005480138
41.76,0.03911049452502037
41.84,0.0386948368099225
41.92,0.03831118260073686
42.0,0.03796056578408601
42.08,0.037643688347421767
42.160000000000004,0.0373610991149481
42.24,0.037113328658101796
42.32,0.03690095330603263
42.4,0.0367245717939732
42.480000000000004,0.036584691872542936
42.56,0.03648153922545253
42.64,0.03641481507182555
42.72,0.03638343965733356
42.800000000000004,0.036385324636159413
42.88,0.03641721696459642
42.96,0.036474650109154155
43.04,0.03655202582797807
43.12,0.03664283311804912
43.2,0.03673999240871775
43.28,0.0368362953411265
43.36,0.03692489606589536
43.44,0.036999801037733565
43.52,0.03705630213929291
43.6,0.03709130301251079
43.68,0.03710350007716895
43.76,0.03709339631905866
43.84,0.03706314530230821
43.92,0.03701624242862424
44.0,0.036957097690546926
44.08,0.036890536896455266
44.160000000000004,0.03682128510673924
44.24,0.036753486186407336
44.32,0.03669030621453629
44.4,0.036633657067805796
44.480000000000004,0.03658406150142439
44.56,0.03654066452513986
44.64,0.03650137991343346
44.72,0.03646314717901468
44.800000000000004,0.03642226471717694
44.88,0.036374759945746155
44.96,0.03631675732235476
45.04,0.036244809695391275
45.12,0.03615616658994113
45.2,0.0360489634242559
45.28,0.03592232678292679
45.36,0.035776401227756376
45.44,0.03561231137836418
45.52,0.03543207815735447
45.6,0.035238509648442384
45.68,0.03503508497029204
45.76,0.03482584446847377
45.84,0.034615292384048826
45.92,0.03440831030908831
46.0,0.03421007265644578
46.08,0.03402595042058652
46.160000000000004,0.033861387721173225
46.24,0.0337217375102892
46.32,0.033612048263497854
46.4,0.03353680170658326
46.480000000000004,0.03349961137676285
46.56,0.03350290149627461
46.64,0.03354759363105816
46.72,0.03363283354732251
46.800000000000004,0.03375579166986811
46.88,0.03391156730574937
46.96,0.034093219672538706
47.04,0.034291938641955746
47.12,0.03449735620619959
47.2,0.034697987351852595
47.28,0.03488177755588583
47.36,0.03503672453005159
47.44,0.03515153484502488
47.52,0.03521627205828381
47.6,0.03522295208733588
47.68,0.03516604377641362
47.76,0.035042837760199466
47.84,0.03485365461727542
47.92,0.0346018736169644
48.0,0.03429377562789709
48.08,0.03393820728177253
48.160000000000004,0.03354608731184972
48.24,0.033129788906630965
48.32,0.032702442581170374
48.4,0.032277211143952975
48.480000000000004,0.03186659074711781
48.56,0.03148178914569573
48.64,0.031132224198670618
48.72,0.03082517308669536
48.800000000000004,0.030565587138419753
48.88,0.030356070484244033
48.96,0.030197005136928655
49.04,0.030086792545712816
49.120000000000005,0.03002217373373621
49.2,0.029998587633760898
49.28,0.030010530152185418
49.36,0.030051883942488512
49.44,0.030116199309084206
49.52,0.030196918156335927
49.6,0.03028754347418501
49.68,0.03038176485295159
49.76,0.03047355487958686
49.84,0.030557251673352617
49.92,0.03062763972331655
50.0,0.030680035677391686
50.08,0.030710379268660166
50.160000000000004,0.03071532368350522
50.24,0.030692315668023225
50.32,0.03063965433255763
50.4,0.03055651911851205
50.480000000000004,0.03044296127675726
50.56,0.030299858513095523
50.64,0.030128837952354798
50.72,0.02993217703191217
50.800000000000004,0.029712694397457967
50.88,0.029473642839133028
50.96,0.029218613824681876
51.04,0.028951458826045814
51.120000000000005,0.02867622734522214
51.2,0.028397116442707357
51.28,0.028118422711956165
51.36,0.02784448580880913
51.44,0.027579613206080798
51.52,0.02732797870882154
51.6,0.027093491925554707
51.68,0.026879641538050593
51.76,0.026689320907903887
51.84,0.026524649404077744
51.92,0.026386806119110314
52.0,0.026275893928817448
52.08,0.026190851015247776
52.160000000000004,0.026129424169397536
52.24,0.02608821378280557
52.32,0.026062794911481613
52.4,0.026047912676545104
52.480000000000004,0.026037744057286746
52.56,0.02602621228751116
52.64,0.02600733498633514
52.72,0.025975583203707124
52.800000000000004,0.02592622607852954
52.88,0.025855635107417715
52.96,0.02576152336603403
53.04,0.025643098569094885
53.120000000000005,0.025501114584586648
53.2,0.025337813682764943
53.28,0.025156760878298455
53.36,0.024962581423383333
53.44,0.02476062183061992
53.52,0.02455656264956285
53.6,0.02435601654648135
53.68,0.024164147218542365
53.76,0.023985342856002734
53.84,0.023822972267636758
53.92,0.023679242934673245
54.0,0.023555169154012526
54.08,0.02345064641763856
54.160000000000004,0.02336461676517592
54.24,0.023295300507908106
54.32,0.02324046366301522
54.4,0.023197688423670676
54.480000000000004,0.023164616232475538
54.56,0.0231391391349645
54.64,0.0231195241339439
54.72,0.023104465898904865
54.800000000000004,0.023093073844957977
54.88,0.023084808731661223
54.96,0.023079390233818768
55.04,0.023076699529726123
