Frequency,PSD
6.0,0.3885321476622449
6.08,0.3906761600116943
6.16,0.3947987579685985
6.24,0.4005245487035649
6.32,0.40722017492787554
6.4,0.4140027051842311
6.48,0.41984937583054616
6.5600000000000005,0.4238103319356224
6.640000000000001,0.42527362260508844
6.72,0.4241946922175199
6.8,0.4211993761210952
6.88,0.41750415876460717
6.96,0.4146583006728904
7.04,0.4141761936673822
7.12,0.4171697970960004
7.2,0.4240934344947487
7.28,0.4346753410078085
7.36,0.44804715792791766
7.44,0.46301870320367094
7.5200000000000005,0.4784040314223943
7.6000000000000005,0.49329819528501917
7.68,0.5072300827018287
7.76,0.5201626645455208
7.84,0.5323620496208322
7.92,0.5441968637468849
8.0,0.5559490070684492
8.08,0.567708994637681
8.16,0.5793934513526844
8.24,0.5908689592065342
8.32,0.6021163264685756
8.4,0.6133468469164557
8.48,0.6250013765537119
8.56,0.6376171489892282
8.64,0.6516095842789567
8.72,0.6670554718784045
8.8,0.683562293672624
8.88,0.7002718386516125
8.96,0.7159971933910542
9.040000000000001,0.7294536010148986
9.120000000000001,0.7395255572674343
9.200000000000001,0.7455109034743717
9.28,0.7472891890518327
9.36,0.7453732710268854
9.44,0.7408238403543199
9.52,0.7350394401239826
9.6,0.7294734667337135
9.68,0.7253584317766326
9.76,0.7235190268192044
9.84,0.7243232689170364
9.92,0.7277673046706332
10.0,0.733639577154169
10.08,0.7416881658831832
10.16,0.7517297289101855
10.24,0.7636775804605134
10.32,0.7775056516924639
10.4,0.7931836258208083
10.48,0.8106120134718766
10.56,0.8295672690215589
10.64,0.8496553588003906
10.72,0.8702778690458014
10.8,0.8906315883715853
10.88,0.9097724757948499
10.96,0.9267620272991024
11.040000000000001,0.9408774325125285
11.120000000000001,0.9518238450924915
11.200000000000001,0.9598633487946278
11.28,0.9657889544868393
11.36,0.9707217780308176
11.44,0.9757743740415776
11.52,0.9816742292919023
11.6,0.9884579628217627
11.68,0.9953260689794459
11.76,1.0007035203652477
11.84,1.0025022045415006
11.92,0.9985400799960552
12.0,0.987041892143655
12.08,0.9671245044728591
12.16,0.9391568912939773
12.24,0.9048892982069097
12.32,0.8672804986197211
12.4,0.8300211604845551
12.48,0.7968416262051661
12.56,0.7707722010542919
12.64,0.7535564064134782
12.72,0.7453802279052517
12.8,0.744980333148979
12.88,0.7500686575898128
12.96,0.7579111611088718
13.040000000000001,0.7658667283844361
13.120000000000001,0.7717396619153598
13.200000000000001,0.7739009045306665
13.280000000000001,0.7712389135869337
13.36,0.763060485770888
13.44,0.7490494693714101
13.52,0.7293199695772367
13.6,0.7045138764130855
13.68,0.6758404863902624
13.76,0.6449679782281414
13.84,0.6137457792006473
13.92,0.5838256631174494
14.0,0.5563104746843218
14.08,0.531560911700541
14.16,0.5092317819518504
14.24,0.48851807478026976
14.32,0.468510696324838
14.4,0.4485275652867954
14.48,0.4283101639852391
14.56,0.40804261173830536
14.64,0.3882251212571278
14.72,0.36948141656733935
14.8,0.35238313463584314
14.88,0.3373409781037585
14.96,0.32456740020031416
15.040000000000001,0.3140847459198187
15.120000000000001,0.305748081513429
15.200000000000001,0.2992675511533371
15.280000000000001,0.29423470911256505
15.36,0.29016636695718
15.44,0.286573563497795
15.52,0.2830479171776308
15.6,0.2793428001752141
15.68,0.27542056388181013
15.76,0.27144275082419456
15.84,0.267696564960615
15.92,0.2644730352023017
16.0,0.2619327599706337
16.080000000000002,0.26000509382184267
16.16,0.2583595643726813
16.240000000000002,0.256464240300138
16.32,0.2537134964416694
16.4,0.2495816135345285
16.48,0.24375146462120656
16.56,0.23618218910767222
16.64,0.2271074658875874
16.72,0.2169814453729764
16.8,0.20640021639849085
16.88,0.19602079945624282
16.96,0.18648551254500312
17.04,0.17834929771718122
17.12,0.17200837592242155
17.2,0.16763815848669616
17.28,0.1651576354877093
17.36,0.16423778031286163
17.44,0.16436067133575286
17.52,0.16491936671814217
17.6,0.16533472476276767
17.68,0.1651605743289828
17.76,0.16415361290327252
17.84,0.16229535005504767
17.92,0.1597654684611876
18.0,0.1568760345644477
18.080000000000002,0.15398309535710394
18.16,0.15139614537601667
18.240000000000002,0.14930605090729518
18.32,0.14774733806475476
18.400000000000002,0.1466014822548078
18.48,0.14563634182187307
18.56,0.14456715602681255
18.64,0.14312022961290913
18.72,0.14108280341591556
18.8,0.1383298740142903
18.88,0.13482726943940354
18.96,0.13061682213800563
19.04,0.1257925339546989
19.12,0.12047654890047885
19.2,0.11480162068073521
19.28,0.108903425958712
19.36,0.10292206777245363
19.44,0.09700824184755652
19.52,0.09132716923097081
19.6,0.08605390819219777
19.68,0.08135739154526206
19.76,0.07737618476323523
19.84,0.07419397219878052
19.92,0.07182460635055864
20.0,0.07021399228474948
20.080000000000002,0.06925992423090388
20.16,0.06884373444837977
20.240000000000002,0.06886236002954654
20.32,0.06924857082123155
20.400000000000002,0.06997127820601576
20.48,0.07101562705866378
20.56,0.07235093353588024
20.64,0.07390001481283563
20.72,0.07552363702716061
20.8,0.07702842853402364
20.88,0.07819781009424087
20.96,0.07883688918954529
21.04,0.07881722357880692
21.12,0.07810748519972927
21.2,0.07678071530396993
21.28,0.07499592685200938
21.36,0.0729589395054917
21.44,0.07087284189871258
21.52,0.06889138692810748
21.6,0.06708829521410825
21.68,0.06545148901938076
21.76,0.0639040852237116
21.84,0.06234528566021988
21.92,0.06069713872411375
22.0,0.05894068135080173
22.080000000000002,0.057128835359344064
22.16,0.055372495815451034
22.240000000000002,0.05380677868318557
22.32,0.05255170638625084
22.400000000000002,0.051682404071459576
22.48,0.051217988977281345
22.56,0.05112887621436496
22.64,0.05135401447291596
22.72,0.05181663210595464
22.8,0.0524305763839779
22.88,0.053096995045553985
22.96,0.05369848516141109
23.04,0.054100681179144045
23.12,0.05416784192462269
23.2,0.053791070199907434
23.28,0.052919664236882595
23.36,0.05158228002946433
23.44,0.04988732248109157
23.52,0.048000033809778304
23.6,0.04610313947479259
23.68,0.044354203751260576
23.76,0.04285345716388325
23.84,0.04163111939414148
23.92,0.04065576851993661
24.0,0.03985835216147913
24.080000000000002,0.039162358328206075
24.16,0.03851025627427539
24.240000000000002,0.03787898397951166
24.32,0.03728159979368672
24.400000000000002,0.03675663281525947
24.48,0.036349851269545784
24.560000000000002,0.03609445539380303
24.64,0.03599519130188885
24.72,0.03602022650783116
24.8,0.036102570489769004
24.88,0.03615081304160426
24.96,0.036067103242653005
25.04,0.035768662540017974
25.12,0.035207994279812985
25.2,0.03438678053993896
25.28,0.03335956977101789
25.36,0.03222563260350873
25.44,0.03111020334751581
25.52,0.030138933496803296
25.6,0.02941109794648941
25.68,0.02897756695073731
25.76,0.028828734924926953
25.84,0.028895625492960392
25.92,0.029064568039710047
26.0,0.029202649833935064
26.080000000000002,0.029188287914708243
26.16,0.02893955246330623
26.240000000000002,0.028432994004021078
26.32,0.027707918511035462
26.400000000000002,0.02685488426331055
26.48,0.02599158295134117
26.560000000000002,0.025232815130708318
26.64,0.024662778964813288
26.72,0.024316860227543906
26.8,0.024176959205950158
26.88,0.02418028249405805
26.96,0.02423788567421426
27.04,0.024257177436655376
27.12,0.024162482325261716
27.2,0.0239092615336755
27.28,0.023489902693922197
27.36,0.022931260689674916
27.44,0.022285795599365874
27.52,0.021619027369307486
27.6,0.02099619977818753
27.68,0.02047070091822214
27.76,0.020076089212880566
27.84,0.019822676311781855
27.92,0.0196987029450326
28.0,0.019675396053830483
28.080000000000002,0.01971470673024163
28.16,0.01977823750329547
28.240000000000002,0.019835646042119254
28.32,0.01987065857776268
28.400000000000002,0.019882977795211976
28.48,0.019885163177056752
28.560000000000002,0.019895080688842492
28.64,0.019926311956330375
28.72,0.019980086478575826
28.8,0.020042028626372874
28.88,0.020085152597014405
28.96,0.020077882114399925
29.04,0.019993760516492796
29.12,0.019819044411315684
29.2,0.019555694092156708
29.28,0.01921951830596329
29.36,0.01883510354850556
29.44,0.01842978012918261
29.52,0.018028283681551856
29.6,0.017648732464330727
29.68,0.017299902160483115
29.76,0.01697984251052678
29.84,0.01667627763520226
29.92,0.016369327069286625
30.0,0.016036526220704152
30.080000000000002,0.01565912979105971
30.16,0.015227864288804396
30.240000000000002,0.014746221025854144
30.32,0.014230181443479607
30.400000000000002,0.013704571825325577
30.48,0.013197425585122588
30.560000000000002,0.012734266725379265
30.64,0.012333960281108475
30.72,0.012006937837961659
30.8,0.011755647231252683
30.88,0.011576409280082222
30.96,0.01146168339984087
31.04,0.011401977084751193
31.12,0.011387046391970638
31.2,0.011406391848951362
31.28,0.01144925065302111
31.36,0.011504358296707073
31.44,0.011559789839345757
31.52,0.011603221842237795
31.6,0.011622911953826396
31.68,0.011609478930959502
31.76,0.011558176770510499
31.84,0.01147093788942158
31.92,0.011357249082456012
32.0,0.011233107953315544
32.08,0.011117896875997763
32.160000000000004,0.011029806456054883
32.24,0.010981109279850722
32.32,0.010974810055670668
32.4,0.01100382666391975
32.480000000000004,0.01105299166603021
32.56,0.011103151856364669
32.64,0.01113593162567407
32.72,0.01113763615533548
32.8,0.011101309504183057
32.88,0.011026803583491247
32.96,0.010919392097952256
33.04,0.010787672930887626
33.12,0.010641285569679831
33.2,0.010488653580798726
33.28,0.010334882433529133
33.36,0.010180172937792751
33.44,0.010019399867077831
33.52,0.00984348161327394
33.6,0.009642640255275477
33.68,0.009410791505290374
33.76,0.009149559350271888
33.84,0.008870235999453923
33.92,0.00859258822323663
34.0,0.008340549230636426
34.08,0.00813605544351356
34.160000000000004,0.007993070484613094
34.24,0.007913853120719168
34.32,0.007888756957995917
34.4,0.007899590889891341
34.480000000000004,0.007925301226427267
34.56,0.007947942651674781
34.64,0.007956886253722241
34.72,0.007949963946498995
34.800000000000004,0.007931455280144122
34.88,0.007907990794974128
34.96,0.00788411679354078
35.04,0.007859215695136305
35.12,0.00782679894879994
35.2,0.0077762279411946154
35.28,0.007696079955491369
35.36,0.007577944941811342
35.44,0.007419476145118863
35.52,0.0072258906908206945
35.6,0.0070096146453514
35.68,0.006788225004132231
35.76,0.0065811914390366735
35.84,0.006406163145792317
35.92,0.006275674015673188
36.0,0.006195097899315698
36.08,0.006162406124242639
36.160000000000004,0.0061697652336871744
36.24,0.006206403540599616
36.32,0.0062617172720646555
36.4,0.006327512132233613
36.480000000000004,0.0063986575668921915
36.56,0.006472121364128065
36.64,0.006545047042288321
36.72,0.00661292803096891
36.800000000000004,0.0066688598218625945
36.88,0.006704364490395336
36.96,0.006711602167420468
37.04,0.006686192642724828
37.12,0.0066295903171662025
37.2,0.006550071910340412
37.28,0.006461838381982029
37.36,0.0063823207909295175
37.44,0.006328309477886475
37.52,0.006311848693185012
37.6,0.006336902465848732
37.68,0.006397630889580795
37.76,0.006478781647994677
37.84,0.006558258578324036
37.92,0.006611432587567746
38.0,0.006616289904289867
38.08,0.0065581927027287155
38.160000000000004,0.00643300251698582
38.24,0.006247680296543375
38.32,0.006018184794096236
38.4,0.005765330310538422
38.480000000000004,0.005509916690686451
38.56,0.005268629606685692
38.64,0.005051839111305108
38.72,0.004863661897200118
38.800000000000004,0.004703834318351096
38.88,0.004570405693951498
38.96,0.004462175220459675
39.04,0.0043801038735723
39.12,0.0043274194826454756
39.2,0.004308567619513092
39.28,0.004327417590431278
39.36,0.0043852221907772215
39.44,0.004478835862597862
39.52,0.0045996786706271955
39.6,0.004733873289953845
39.68,0.004863803430185227
39.76,0.004970996952777585
39.84,0.005039782416354411
39.92,0.005060774085535373
40.0,0.005033114362035155
40.08,0.004964668768447374
40.160000000000004,0.004869981068619149
40.24,0.004766536868096652
40.32,0.004670455409602635
40.4,0.004592893821391546
40.480000000000004,0.004538143545576661
40.56,0.004503767276135069
40.64,0.004482440501460132
40.72,0.004464694718743557
40.800000000000004,0.004441650817660393
40.88,0.004407046583811282
40.96,0.004358240795070169
41.04,0.004296234657792074
41.12,0.004224973646991651
41.2,0.0041502594198618275
41.28,0.004078558221697641
41.36,0.004015901339608583
41.44,0.003966982650457289
41.52,0.003934497130019675
41.6,0.003918746079946329
41.68,0.003917554616437407
41.76,0.003926573471328227
41.84,0.003940020242722353
41.92,0.003951816033369278
42.0,0.003956903262645741
42.08,0.003952367180082598
42.160000000000004,0.003937941468050753
42.24,0.003915638007628377
42.32,0.0038885803900026153
42.4,0.0038594981263095993
42.480000000000004,0.0038295522020975487
42.56,0.0037980648885779875
42.64,0.003763323485955405
42.72,0.0037240974020383245
42.800000000000004,0.003681117864631372
42.88,0.0036377321489753983
42.96,0.0035992973315076985
43.04,0.0035714597610290826
43.12,0.0035579961612505068
43.2,0.0035591180766871705
43.28,0.0035709627304473385
43.36,0.0035865033636114235
43.44,0.0035975408060013106
43.52,0.003597034336709718
43.6,0.0035809465155122074
43.68,0.0035490135198902595
43.76,0.0035042786982803983
43.84,0.0034516585796220273
43.92,0.00339609607852856
44.0,0.003340926674687524
44.08,0.0032869553763533853
44.160000000000004,0.0032324833796382006
44.24,0.0031742198828187303
44.32,0.0031087504113308257
44.4,0.003034078360393431
44.480000000000004,0.0029507538445293184
44.56,0.0028622514554608493
44.64,0.002774503553359675
44.72,0.0026947524564584907
44.800000000000004,0.0026300705003568653
44.88,0.0025859638203896626
44.96,0.002565420491714753
45.04,0.0025686140301359097
45.12,0.0025932712640375395
45.2,0.0026355101067694793
45.28,0.0026908083526488817
45.36,0.0027547395127743186
45.44,0.0028232368241618705
45.52,0.0028923905206597322
45.6,0.002958044360720259
45.68,0.003015598674875608
45.76,0.0030603482910637574
45.84,0.003088389321787375
45.92,0.003097751465250126
46.0,0.003089161931698059
46.08,0.0030658999383782054
46.160000000000004,0.003032585639194188
46.24,0.002993299096196965
46.32,0.002949851510138553
46.4,0.002901072358360863
46.480000000000004,0.0028435651352947365
46.56,0.002773705172123015
46.64,0.002690048939850958
46.72,0.0025951051591593943
46.800000000000004,0.0024956863463353185
46.88,0.0024016636404701995
46.96,0.0023235852338923148
47.04,0.002270010924230268
47.12,0.002245441223187924
47.2,0.0022494372300724957
47.28,0.0022770986038928714
47.36,0.002320655003046849
47.44,0.0023716364232665398
47.52,0.002422963615805844
47.6,0.0024703489314301455
47.68,0.002512608735172079
47.76,0.0025508233994089684
47.84,0.002586662048681982
47.92,0.002620500609433734
48.0,0.0026500800465964827
48.08,0.0026702996334971793
48.160000000000004,0.0026743370391966483
48.24,0.0026557662982703255
48.32,0.002610915851373654
48.4,0.0025405683555145865
48.480000000000004,0.002450333671132291
48.56,0.002349537661105929
48.64,0.002249035865031397
48.72,0.0021587314096476948
48.800000000000004,0.0020856038955969353
48.88,0.0020327669424285294
48.96,0.0019996354704545846
49.04,0.0019829068487025106
49.120000000000005,0.001977880270141001
49.2,0.001979673978159853
49.28,0.00198407200365687
49.36,0.0019879321645185216
49.44,0.0019892356549325307
49.52,0.0019869280946667456
49.6,0.001980704109022912
49.68,0.0019708469410569147
49.76,0.0019581713738616585
49.84,0.0019440471486627947
49.92,0.001930418168908845
50.0,0.001919702642828678
50.08,0.0019144814465335037
50.160000000000004,0.0019169606581655695
50.24,0.0019283071188293081
50.32,0.0019480568895905055
50.4,0.0019738334600571776
50.480000000000004,0.0020015532188097547
50.56,0.0020261481507627063
50.64,0.0020426511760275948
50.72,0.002047342492828251
50.800000000000004,0.002038609592000286
50.88,0.0020172518458853525
50.96,0.001986133557835175
51.04,0.0019492913964818184
51.120000000000005,0.0019107624045408209
51.2,0.0018734704029436076
51.28,0.0018384807115153813
51.36,0.0018048240192895804
51.44,0.0017699328714292084
51.52,0.0017305660801415074
51.6,0.001683957349729523
51.68,0.0016288549119905862
51.76,0.0015661490057207114
51.84,0.001498915052328461
51.92,0.0014318930183244462
52.0,0.0013706055487813784
52.08,0.0013204141319794749
52.160000000000004,0.0012857838325347048
52.24,0.001269890938357431
52.32,0.0012745335701292403
52.4,0.0013001796232117203
52.480000000000004,0.0013459695105996067
52.56,0.001409586301871421
52.64,0.001487058474325233
52.72,0.0015726865694341407
52.800000000000004,0.0016593128577604543
52.88,0.0017390575785603424
52.96,0.0018044600105117164
53.04,0.00184976637084592
53.120000000000005,0.0018719909067773169
53.2,0.0018714055429621887
53.28,0.0018512900256791075
53.36,0.001817030679074831
53.44,0.001774878319927239
53.52,0.0017307614173057767
53.6,0.0016894640288477253
53.68,0.0016542750850657073
53.76,0.0016270113212984972
53.84,0.0016082156245800943
53.92,0.0015973681804978064
54.0,0.0015930655107438611
54.08,0.0015932249445493483
54.160000000000004,0.0015953874727391406
54.24,0.0015971204115073365
54.32,0.0015964281140835304
54.4,0.001592042017966544
54.480000000000004,0.001583512201778467
54.56,0.0015711242010327015
54.64,0.0015557412041823887
54.72,0.0015386676575167937
54.800000000000004,0.0015215542962409476
54.88,0.0015062823296772248
54.96,0.0014947468558350913
55.04,0.0014885261882644635
