Frequency,PSD
6.0,0.5655223298079783
6.08,0.5656911114842836
6.16,0.5660280228142266
6.24,0.5665317617878693
6.32,0.5672003804767588
6.4,0.5680312911318683
6.48,0.5690212743042293
6.5600000000000005,0.5701664889791576
6.640000000000001,0.5714624847120193
6.72,0.5729042157500805
6.8,0.5744860571210855
6.88,0.5762018226647456
6.96,0.5780447849782624
7.04,0.5800076972413111
7.12,0.582082816879573
7.2,0.5842619310189182
7.28,0.5865363836747247
7.36,0.5888971046126067
7.44,0.5913346398080678
7.5200000000000005,0.5938391834233435
7.6000000000000005,0.596400611210064
7.68,0.599008515236402
7.76,0.6016522398272278
7.84,0.6043209185955662
7.92,0.6070035124334676
8.0,0.6096888483204388
8.08,0.6123656587979396
8.16,0.6150226219493109
8.24,0.6176484017160152
8.32,0.620231688373381
8.4,0.6227612389823195
8.48,0.6252259176278409
8.56,0.6276147352508222
8.64,0.629916888876434
8.72,0.6321218000411001
8.8,0.6342191522198799
8.88,0.636198927057851
8.96,0.6380514392124615
9.040000000000001,0.6397673696189808
9.120000000000001,0.6413377969980911
9.200000000000001,0.6427542274333508
9.28,0.6440086218566743
9.36,0.6450934212920612
9.44,0.6460015697214854
9.52,0.6467265344520274
9.6,0.6472623238798507
9.68,0.647603502564364
9.76,0.6477452035446853
9.84,0.6476831378501446
9.92,0.6474136011768405
10.0,0.6469334777229807
10.08,0.6462402411966472
10.16,0.6453319530305366
10.24,0.6442072578588608
10.32,0.6428653763317692
10.4,0.6413060953620751
10.48,0.6395297559175952
10.56,0.6375372384897524
10.64,0.6353299463851172
10.72,0.6329097870010467
10.8,0.6302791512593806
10.88,0.6274408913831513
10.96,0.6243982972102936
11.040000000000001,0.621155071245378
11.120000000000001,0.6177153026553266
11.200000000000001,0.6140834404178935
11.28,0.610264265832392
11.36,0.6062628646007573
11.44,0.6020845986835821
11.52,0.5977350781303508
11.6,0.5932201330758112
11.68,0.5885457860853864
11.76,0.5837182250219154
11.84,0.578743776593936
11.92,0.573628880732415
12.0,0.5683800659284568
12.08,0.5630039256492871
12.16,0.557507095933921
12.24,0.5518962342536138
12.32,0.5461779997056437
12.4,0.5403590345924112
12.48,0.5344459474214718
12.56,0.5284452973461173
12.64,0.5223635800506925
12.72,0.5162072150701249
12.8,0.5099825345193241
12.88,0.5036957731953035
12.96,0.49735306000319196
13.040000000000001,0.4909604106468629
13.120000000000001,0.48452372151574585
13.200000000000001,0.47804876469159757
13.280000000000001,0.4715411839925923
13.36,0.4650064919670771
13.44,0.45845006774571284
13.52,0.4518771556584666
13.6,0.44529286452196726
13.68,0.43870216750306473
13.76,0.4321099024659243
13.84,0.42552077271259914
13.92,0.4189393480306102
14.0,0.41237006596557607
14.08,0.4058172332421969
14.16,0.3992850272628604
14.24,0.392777497619619
14.32,0.3862985675622215
14.4,0.37985203537211587
14.48,0.37344157559977026
14.56,0.3670707401301826
14.64,0.3607429590489489
14.72,0.3544615412886501
14.8,0.34822967504249447
14.88,0.3420504279390555
14.96,0.3359267469784804
15.040000000000001,0.3298614582366696
15.120000000000001,0.323857266349576
15.200000000000001,0.3179167537949101
15.280000000000001,0.31204237999313195
15.36,0.30623648025362665
15.44,0.30050126459540105
15.52,0.2948388164744845
15.6,0.2892510914524693
15.68,0.28373991584230474
15.76,0.2783069853685573
15.84,0.2729538638799114
15.92,0.2676819821517138
16.0,0.2624926368159037
16.080000000000002,0.2573869894547353
16.16,0.252366065893341
16.240000000000002,0.24743075572442902
16.32,0.24258181209628243
16.4,0.23781985179279347
16.48,0.23314535563153654
16.56,0.2285586692029123
16.64,0.22406000397020995
16.72,0.2196494387470712
16.8,0.2153269215653507
16.88,0.21109227194275035
16.96,0.2069451835559384
17.04,0.20288522732115033
17.12,0.19891185488053081
17.2,0.19502440248879294
17.28,0.1912220952910995
17.36,0.187504051979511
17.44,0.18386928981186904
17.52,0.1803167299736461
17.6,0.1768452032601175
17.68,0.17345345605320597
17.76,0.17014015656455383
17.84,0.16690390131381655
17.92,0.16374322180883902
18.0,0.16065659139233135
18.080000000000002,0.1576424322178914
18.16,0.15469912231675764
18.240000000000002,0.1518250027155307
18.32,0.14901838456429134
18.400000000000002,0.1462775562340696
18.48,0.14360079034250106
18.56,0.14098635066674725
18.64,0.13843249890334647
18.72,0.13593750123562764
18.8,0.13349963467061948
18.88,0.13111719310905728
18.96,0.1287884931140736
19.04,0.1265118793464888
19.12,0.12428572963722917
19.2,0.12210845967030567
19.28,0.11997852725295172
19.36,0.11789443615289641
19.44,0.11585473948633544
19.52,0.11385804264390753
19.6,0.11190300574584018
19.68,0.10998834562138779
19.76,0.10811283731166937
19.84,0.10627531509900509
19.92,0.10447467306980224
20.0,0.10270986522190133
20.080000000000002,0.10097990513102886
20.16,0.09928386519457043
20.240000000000002,0.09762087547422882
20.32,0.09599012216225535
20.400000000000002,0.09439084569875439
20.48,0.09282233857009889
20.56,0.09128394282065937
20.64,0.08977504731187719
20.72,0.08829508476413998
20.8,0.08684352861796868
20.88,0.08541988975165794
20.96,0.08402371309275243
21.04,0.08265457416056016
21.12,0.08131207557634647
21.2,0.0799958435768936
21.28,0.0787055245657888
21.36,0.07744078173514418
21.44,0.07620129178846088
21.52,0.07498674179307682
21.6,0.07379682618811516
21.68,0.07263124397109437
21.76,0.07148969608344337
21.84,0.07037188301209948
21.92,0.06927750262120659
22.0,0.06820624822471902
22.080000000000002,0.06715780690749913
22.16,0.06613185809929822
22.240000000000002,0.06512807240289484
22.32,0.06414611067465813
22.400000000000002,0.06318562335293222
22.48,0.06224625002696487
22.56,0.061327619236618364
22.64,0.06042934849086441
22.72,0.059551044491079605
22.8,0.05869230354344426
22.88,0.0578527121433219
22.96,0.057031847713364975
23.04,0.056229279476253904
23.12,0.05544456944244478
23.2,0.05467727349304542
23.28,0.05392694253797573
23.36,0.0531931237298773
23.44,0.0524753617147716
23.52,0.051773199901270925
23.6,0.05108618173111883
23.68,0.0504138519350186
23.76,0.04975575775903661
23.84,0.049111450148319954
23.92,0.048480484876421134
24.0,0.04786242361015469
24.080000000000002,0.04725683490155598
24.16,0.04666329510020781
24.240000000000002,0.04608138918083798
24.32,0.04551071148272918
24.400000000000002,0.04495086635901598
24.48,0.04440146873542449
24.560000000000002,0.04386214457936421
24.64,0.04333253128152568
24.72,0.04281227795323671
24.8,0.042301045643801674
24.88,0.04179850748284723
24.96,0.04130434875336132
25.04,0.040818266901598274
25.12,0.040339971490377005
25.2,0.03986918410248075
25.28,0.03940563820092096
25.36,0.03894907895273476
25.44,0.038499263022783406
25.52,0.038055958343690015
25.6,0.03761894386764419
25.68,0.03718800930529986
25.76,0.03676295485642954
25.84,0.03634359093638712
25.92,0.035929737901785004
26.0,0.03552122577812967
26.080000000000002,0.035117893991498436
26.16,0.03471959110568747
26.240000000000002,0.034326174565642395
26.32,0.0339375104473936
26.400000000000002,0.03355347321419258
26.48,0.03317394547806266
26.560000000000002,0.03279881776557624
26.64,0.032427988286331526
26.72,0.03206136270234632
26.8,0.031698853896399065
26.88,0.03134038173725678
26.96,0.03098587283969264
27.04,0.030635260317259595
27.12,0.030288483525897407
27.2,0.02994548779664465
27.28,0.029606224155966056
27.36,0.029270649032509304
27.44,0.02893872394943079
27.52,0.028610415201814787
27.6,0.028285693519093415
27.68,0.02796453371279395
27.76,0.027646914310345865
27.84,0.02733281717609857
27.92,0.027022227121089794
28.0,0.02671513150348679
28.080000000000002,0.026411519821965157
28.16,0.026111383304602758
28.240000000000002,0.0258147144961334
28.32,0.025521506846628773
28.400000000000002,0.025231754304845054
28.48,0.024945450919593305
28.560000000000002,0.024662590452546256
28.64,0.02438316600591156
28.72,0.024107169668336533
28.8,0.02383459218232117
28.88,0.023565422636243567
28.96,0.02329964818390751
29.04,0.023037253794263253
29.12,0.022778222033666667
29.2,0.022522532882706617
29.28,0.022270163589281543
29.36,0.022021088559222027
29.44,0.021775279285355043
29.52,0.02153270431550187
29.6,0.021293329259483622
29.68,0.021057116834796254
29.76,0.020824026950214958
29.84,0.02059401682619229
29.92,0.02036704115054617
30.0,0.020143052267581965
30.080000000000002,0.01992200039847572
30.16,0.019703833890454554
30.240000000000002,0.019488499492061905
30.32,0.01927594265157697
30.400000000000002,0.019066107835487574
30.48,0.01885893886378208
30.560000000000002,0.018654379258736586
30.64,0.018452372603824263
30.72,0.01825286290937524
30.8,0.018055794981639263
30.88,0.017861114791990974
30.96,0.017668769843119096
31.04,0.01747870952919154
31.12,0.01729088548716215
31.2,0.017105251936594856
31.28,0.016921766005600292
31.36,0.01674038804074077
31.44,0.016561081899011468
31.52,0.016383815220293755
31.6,0.01620855967895268
31.68,0.016035291213541004
31.76,0.015863990233857858
31.84,0.015694641804889654
31.92,0.015527235807436769
32.0,0.015361767075478172
32.08,0.015198235510579292
32.160000000000004,0.015036646173862994
32.24,0.014877009356259881
32.32,0.01471934062793303
32.4,0.01456366086791087
32.480000000000004,0.014409996275078817
32.56,0.014258378361758093
32.64,0.014108843931154396
32.72,0.013961435039968408
32.8,0.013816198947446937
32.88,0.013673188052091697
32.96,0.013532459817167008
33.04,0.013394076686019012
33.12,0.013258105988075496
33.2,0.013124619836213651
33.28,0.012993695015981221
33.36,0.012865412866924135
33.44,0.012739859156030485
33.52,0.012617123943032538
33.6,0.012497301437030442
33.68,0.012380489843625091
33.76,0.012266791201448357
33.84,0.012156311206703225
33.92,0.012049159024047233
34.0,0.011945447081887387
34.08,0.011845290849909639
34.160000000000004,0.011748808596451674
34.24,0.011656121123132475
34.32,0.01156735147400402
34.4,0.011482624616380012
34.480000000000004,0.011402067090431754
34.56,0.01132580662463624
34.64,0.011253971714200478
34.72,0.011186691159704389
34.800000000000004,0.011124093563368378
34.88,0.011066306780597628
34.96,0.011013457324760906
35.04,0.01096566972354536
35.12,0.010923065825670979
35.2,0.010885764057276918
35.28,0.010853878627867089
35.36,0.010827518686360497
35.44,0.010806787428491713
35.52,0.01079178115757552
35.6,0.01078258830145101
35.68,0.010779288389266926
35.76,0.010781950992648044
35.84,0.010790634636666787
35.92,0.010805385686946705
36.0,0.010826237220119325
36.08,0.010853207885720886
36.160000000000004,0.010886300768464892
36.24,0.010925502260615403
36.32,0.010970780954918892
36.4,0.011022086569207737
36.480000000000004,0.011079348914358227
36.56,0.01114247691774425
36.64,0.011211357714676197
36.72,0.011285855820525159
36.800000000000004,0.011365812396316283
36.88,0.01145104462049037
36.96,0.011541345179308875
37.04,0.011636481887969482
37.12,0.011736197453947845
37.2,0.011840209393324582
37.28,0.011948210109973155
37.36,0.012059867146386764
37.44,0.012174823613707213
37.52,0.012292698807113128
37.6,0.01241308901120345
37.68,0.012535568498342727
37.76,0.012659690721161071
37.84,0.012784989698524624
37.92,0.012910981592348892
38.0,0.013037166470608744
38.08,0.013163030249882053
38.160000000000004,0.013288046808701047
38.24,0.01341168026097619
38.32,0.01353338737677583
38.4,0.013652620135838983
38.480000000000004,0.01376882839739401
38.56,0.01388146266818128
38.64,0.01398997694903881
38.72,0.014093831639066363
38.800000000000004,0.014192496475216497
38.88,0.014285453484219331
38.96,0.014372199923045375
39.04,0.014452251183637013
39.12,0.014525143637447472
39.2,0.014590437395383231
39.28,0.014647718959083875
39.36,0.014696603740084201
39.44,0.014736738424274297
39.52,0.014767803160221167
39.6,0.014789513551303438
39.68,0.014801622433244729
39.76,0.014803921420479666
39.84,0.014796242206848676
39.92,0.014778457608336359
40.0,0.014750482337958573
40.08,0.014712273505406714
40.160000000000004,0.014663830836646553
40.24,0.01460519661134018
40.32,0.014536455318634428
40.4,0.014457733034548084
40.480000000000004,0.014369196526838783
40.56,0.014271052095796172
40.64,0.014163544161904145
40.72,0.014046953613636665
40.800000000000004,0.013921595930867552
40.88,0.013787819101358428
40.96,0.013646001349602345
41.04,0.013496548698865851
41.12,0.013339892388612211
41.2,0.013176486170549607
41.28,0.013006803507372568
41.36,0.012831334698789595
41.44,0.012650583959698723
41.52,0.012465066475364654
41.6,0.012275305458168947
41.68,0.012081829229971926
41.76,0.011885168353341934
41.84,0.011685852833882047
41.92,0.011484409414666132
42.0,0.011281358982350689
42.08,0.011077214102938555
42.160000000000004,0.010872476703410544
42.24,0.010667635913564903
42.32,0.010463166080420663
42.4,0.010259524965495412
42.480000000000004,0.01005715213315668
42.56,0.009856467536133697
42.64,0.009657870302148226
42.72,0.009461737723544753
42.800000000000004,0.009268424449744468
42.88,0.009078261880400267
42.96,0.008891557755242481
43.04,0.008708595934853056
43.12,0.008529636364962657
43.2,0.008354915215377963
43.28,0.00818464518329419
43.36,0.008019015949570635
43.44,0.007858194775524283
43.52,0.007702327226952604
43.6,0.007551538011418349
43.68,0.007405931914328421
43.76,0.007265594819002999
43.84,0.007130594795764439
43.92,0.007000983245062957
44.0,0.006876796079805809
44.08,0.00675805493233211
44.160000000000004,0.006644768371907653
44.24,0.006536933119147513
44.32,0.006434535244432141
44.4,0.006337551338138755
44.480000000000004,0.006245949641348501
44.56,0.006159691126608026
44.64,0.006078730519309726
44.72,0.006003017251279301
44.800000000000004,0.005932496339237795
44.88,0.0058671091819022855
44.96,0.00580679427060706
45.04,0.005751487809456017
45.12,0.005701124242132203
45.2,0.005655636683611189
45.28,0.005614957256107984
45.36,0.0055790173296569896
45.44,0.005547747668753957
45.52,0.005521078487472648
45.6,0.00549893941641828
45.68,0.005481259385762879
45.76,0.0054679664294462246
45.84,0.005458987416390422
45.92,0.0054542477152903085
46.0,0.005453670800170743
46.08,0.005457177804471186
46.160000000000004,0.005464687031907492
46.24,0.005476113432768834
46.32,0.005491368054642834
46.4,0.0055103574768125205
46.480000000000004,0.005532983237727697
46.56,0.0055591412650474355
46.64,0.005588721317729261
46.72,0.005621606449564831
46.800000000000004,0.005657672503373637
46.88,0.005696787644806425
46.96,0.005738811944362154
47.04,0.00578359701578374
47.12,0.0058309857184933415
47.2,0.005880811931123463
47.28,0.005932900402541401
47.36,0.005987066686020306
47.44,0.006043117161408807
47.52,0.00610084914928458
47.6,0.006160051120163209
47.68,0.0062205030008693
47.76,0.00628197657917811
47.84,0.006344236006808283
47.92,0.006407038399799721
48.0,0.006470134534259306
48.08,0.00653326963439789
48.160000000000004,0.00659618424875252
48.24,0.006658615209467426
48.32,0.006720296668527564
48.4,0.006780961203915071
48.480000000000004,0.006840340987778939
48.56,0.006898169007909186
48.64,0.006954180333077799
48.72,0.007008113412181778
48.800000000000004,0.007059711396578041
48.88,0.007108723474570106
48.96,0.007154906206694959
49.04,0.007198024850241982
49.120000000000005,0.007237854661368021
49.2,0.007274182163213346
49.28,0.007306806368588097
49.36,0.0073355399461027745
49.44,0.00736021031902491
49.52,0.007380660686688231
49.6,0.007396750958928288
49.68,0.00740835859478076
49.76,0.007415379337532349
49.84,0.007417727839168983
49.92,0.007415338168288207
50.0,0.0074081641966417845
50.08,0.007396179860619037
50.160000000000004,0.007379379295179497
50.24,0.007357776838954142
50.32,0.007331406910468571
50.4,0.007300323756672215
50.480000000000004,0.0072646010761623706
50.56,0.007224331520683646
50.64,0.007179626079610885
50.72,0.007130613353209126
50.800000000000004,0.007077438721469608
50.88,0.007020263416252313
50.96,0.006959263505297211
51.04,0.006894628797406172
51.120000000000005,0.006826561678724263
51.2,0.006755275890561185
51.28,0.006680995259592537
51.36,0.00660395239155123
51.44,0.006524387339676115
51.52,0.0064425462592078
51.6,0.006358680059135218
51.68,0.00627304306219335
51.76,0.0061858916837781615
51.84,0.006097483140035057
51.92,0.0060080741948426684
52.0,0.0059179199548000175
52.08,0.005827272720629849
52.160000000000004,0.005736380902642887
52.24,0.005645488007075625
52.32,0.005554831699239992
52.4,0.005464642948504895
52.480000000000004,0.005375145259181452
52.56,0.005286553990430723
52.64,0.005199075767340763
52.72,0.005112907984366555
52.800000000000004,0.00502823840137832
52.88,0.004945244831651863
52.96,0.004864094920248394
53.04,0.00478494601039289
53.120000000000005,0.004707945094673937
53.2,0.004633228847150967
53.28,0.004560923731787249
53.36,0.004491146182025842
53.44,0.004424002845787693
53.52,0.00435959088971604
53.6,0.00429799835610378
53.68,0.004239304565633001
53.76,0.004183580558821619
53.84,0.004130889568915567
53.92,0.004081287518881067
54.0,0.004034823535139591
54.08,0.003991540470747637
54.160000000000004,0.003951475430846826
54.24,0.0039146602933996955
54.32,0.0038811222184729197
54.4,0.0038508841396360472
54.480000000000004,0.0038239652313970572
54.56,0.0038003813469984315
54.64,0.0037801454213492775
54.72,0.003763267834342149
54.800000000000004,0.0037497567303372724
54.88,0.0037396182901306423
54.96,0.0037328569523081274
55.04,0.0037294755814764116
