Frequency,PSD
6.0,0.37978447591647435
6.08,0.38109133671024753
6.16,0.38370583523195234
6.24,0.3875111109128183
6.32,0.39212592987692263
6.4,0.39685595160092224
6.48,0.40082663855106604
6.5600000000000005,0.4032789556562611
6.640000000000001,0.40390276518025314
6.72,0.4030367025102617
6.8,0.40161139751684016
6.88,0.4008356214752883
6.96,0.4017565846062901
7.04,0.40489183599285705
7.12,0.41009289562492957
7.2,0.4166810037437556
7.28,0.4237602897621051
7.36,0.43053653645559464
7.44,0.43648910707609845
7.5200000000000005,0.44134385414860255
7.6000000000000005,0.4449162484940432
7.68,0.4469659578354099
7.76,0.44718468851002224
7.84,0.4453405120855242
7.92,0.4414860592107003
8.0,0.4360804627986222
8.08,0.4299166421467834
8.16,0.4238634077070629
8.24,0.41855149389919466
8.32,0.4141767095678921
8.4,0.410533506837374
8.48,0.40726671979814766
8.56,0.4042146823936583
8.64,0.4016760984138537
8.72,0.40047753974440714
8.8,0.4018114231635627
8.88,0.4069039388792233
8.96,0.41662538848580816
9.040000000000001,0.4311660454686055
9.120000000000001,0.44987761509912094
9.200000000000001,0.47133221127209074
9.28,0.4935859413759265
9.36,0.5145696693093221
9.44,0.5324908118583204
9.52,0.5461360381542806
9.6,0.55501114717382
9.68,0.5593141870782575
9.76,0.5597814120021047
9.84,0.5574616883466667
9.92,0.5534728617934159
10.0,0.5487872211352784
10.08,0.5440854288989274
10.16,0.5397026595384364
10.24,0.5356652340499375
10.32,0.5317907471803552
10.4,0.5278129042669605
10.48,0.5234969732899979
10.56,0.518723581196847
10.64,0.5135278151670002
10.72,0.5080875327338423
10.8,0.5026659947845188
10.88,0.49752994388134175
10.96,0.4928751270430375
11.040000000000001,0.488786184603378
11.120000000000001,0.4852375010458957
11.200000000000001,0.4821193757685988
11.28,0.47926470538337146
11.36,0.47646040463930567
11.44,0.4734479131837909
11.52,0.46993488512581016
11.6,0.4656435762426432
11.68,0.4604058239340315
11.76,0.45428526293120897
11.84,0.44767882472503656
11.92,0.4413383152198568
12.0,0.4362687857791102
12.08,0.43350054207121724
12.16,0.43378164898010907
12.24,0.4372789064853739
12.32,0.44339135053331913
12.4,0.45076221534877436
12.48,0.4575233051170397
12.56,0.46173165852090087
12.64,0.4618853945969245
12.72,0.4573626157664785
12.8,0.4486370126779285
12.88,0.43718963968372354
12.96,0.4251358798144429
13.040000000000001,0.41467999661446375
13.120000000000001,0.4075594107216307
13.200000000000001,0.40463173281560516
13.280000000000001,0.4057023782769711
13.36,0.4096177794181977
13.44,0.41458368984587035
13.52,0.4186206399912211
13.6,0.4200406629670147
13.68,0.41782396205579475
13.76,0.4117987912570256
13.84,0.40258513466353646
13.92,0.39133881920028457
14.0,0.3793970645368027
14.08,0.3679483742186809
14.16,0.35781884450758256
14.24,0.34940272954338336
14.32,0.34270506383058885
14.4,0.3374394852328578
14.48,0.3331392933415997
14.56,0.3292704859361272
14.64,0.3253506104187097
14.72,0.321063735616694
14.8,0.3163359643224764
14.88,0.31132897159442297
14.96,0.3063390917594883
15.040000000000001,0.301642788679523
15.120000000000001,0.297368393031591
15.200000000000001,0.2934660886791469
15.280000000000001,0.28979204787264207
15.36,0.28625208718848516
15.44,0.28291152395778096
15.52,0.2799978303867685
15.6,0.27778940713493133
15.68,0.27645421704121487
15.76,0.2759307669797706
15.84,0.2759144443907364
15.92,0.2759476652446038
16.0,0.2755578329825369
16.080000000000002,0.2743764710678933
16.16,0.2722048121183945
16.240000000000002,0.26903375757624803
16.32,0.26504483408756246
16.4,0.2606038577832808
16.48,0.2562308970168541
16.56,0.25251946139498044
16.64,0.2499988167614522
16.72,0.24897245695394712
16.8,0.24939394827102043
16.88,0.25083715060358175
16.96,0.25258251636435297
17.04,0.253795444048294
17.12,0.25374020696793304
17.2,0.25196552829545066
17.28,0.248412014211835
17.36,0.24341659892804024
17.44,0.23761631366351343
17.52,0.23177943579378024
17.6,0.22661313023816665
17.68,0.2226056291804654
17.76,0.21994923545914347
17.84,0.2185577077978499
17.92,0.21815193573171673
18.0,0.21836342133331654
18.080000000000002,0.21881051741938634
18.16,0.21913242603986902
18.240000000000002,0.21899865521600564
18.32,0.21812466133950054
18.400000000000002,0.2163114080907534
18.48,0.21350016496835061
18.56,0.20981434378083752
18.64,0.20556034082110242
18.72,0.20117727184560208
18.8,0.19714860070037704
18.88,0.19390382205719703
18.96,0.19173958556087875
19.04,0.1907794588644906
19.12,0.190977073082294
19.2,0.19215529720669733
19.28,0.19406720184396334
19.36,0.1964619360653309
19.44,0.19913799780798697
19.52,0.20196725499215745
19.6,0.20487789980415907
19.68,0.20779636757191722
19.76,0.2105664724808603
19.84,0.21288145386754992
19.92,0.21426998557356058
20.0,0.21416235355235297
20.080000000000002,0.21203048943455044
20.16,0.20755980198137292
20.240000000000002,0.20079066898242834
20.32,0.19217463880082897
20.400000000000002,0.1825215418490066
20.48,0.17285286780317266
20.56,0.16420560985721533
20.64,0.15743929763696957
20.72,0.153089185865358
20.8,0.1512902119584138
20.88,0.15177874069806419
20.96,0.15396609089236807
21.04,0.15706807018020724
21.12,0.160266024545973
21.2,0.16286788853565043
21.28,0.16443597645690072
21.36,0.16485498787869232
21.44,0.16432828569153315
21.52,0.1633080602054149
21.6,0.16237935874546439
21.68,0.1621254091485106
21.76,0.1630022342229889
21.84,0.16524632993497895
21.92,0.16883171718417223
22.0,0.17348225666157507
22.080000000000002,0.1787324109350777
22.16,0.18401767021462165
22.240000000000002,0.18876957271830905
22.32,0.1924932503566268
22.400000000000002,0.19481649439922147
22.48,0.19551219057488187
22.56,0.19450325767075172
22.64,0.19185777890820474
22.72,0.18777516846063216
22.8,0.1825590884212641
22.88,0.17657474855546368
22.96,0.17019652061220114
23.04,0.16376016473205984
23.12,0.15753504149828274
23.2,0.15172273593858993
23.28,0.14647413381345853
23.36,0.1419066167413774
23.44,0.13810462656135572
23.52,0.13510070165244026
23.6,0.13285156402177492
23.68,0.13123252030500457
23.76,0.13006587856484683
23.84,0.1291788874563075
23.92,0.12846695804595085
24.0,0.1279322430745188
24.080000000000002,0.12768017751180996
24.16,0.12787876469747458
24.240000000000002,0.12870228802675004
24.32,0.13028258730507314
24.400000000000002,0.13267886670500761
24.48,0.13586258966470033
24.560000000000002,0.13970871283828679
24.64,0.14399077749678363
24.72,0.14838769347129305
24.8,0.15251381921705204
24.88,0.15597622001539396
24.96,0.15844807061650976
25.04,0.15973488792730586
25.12,0.15980875965401015
25.2,0.1587963658257005
25.28,0.15692412119717628
25.36,0.15444014540228596
25.44,0.15154133428077182
25.52,0.14833160574350257
25.6,0.14482554766669997
25.68,0.14099466684855436
25.76,0.13683754544190774
25.84,0.13244634228777089
25.92,0.12804320824775173
26.0,0.12397016604423286
26.080000000000002,0.12063063063229977
26.16,0.11839534065622355
26.240000000000002,0.11749681126841778
26.32,0.11794257151555528
26.400000000000002,0.11947649331030183
26.48,0.12160747857099634
26.560000000000002,0.1237057463720517
26.64,0.12514360029426758
26.72,0.1254388683164617
26.8,0.12435465812234106
26.88,0.12192307722928988
26.96,0.11838904404075568
27.04,0.11410162040152744
27.12,0.10940028397716288
27.2,0.10454235809360257
27.28,0.09969517901578939
27.36,0.09498303908706796
27.44,0.09055144467481223
27.52,0.08660448988511259
27.6,0.08338899811429984
27.68,0.08113129180009404
27.76,0.0799601505273613
27.84,0.0798567344963416
27.92,0.08065607055168422
28.0,0.08209672603809279
28.080000000000002,0.08389310499944433
28.16,0.085799769292637
28.240000000000002,0.08764796300194913
28.32,0.08935057845778313
28.400000000000002,0.09088305194794295
28.48,0.09225140790281733
28.560000000000002,0.09345854769647902
28.64,0.09447958792632381
28.72,0.09525588334431798
28.8,0.09571206228055588
28.88,0.09579049409042409
28.96,0.09548790304211413
29.04,0.09487601122804683
29.12,0.0940947765889595
29.2,0.09331913651475185
29.28,0.09271103900590479
29.36,0.0923730505730821
29.44,0.09231798178353519
29.52,0.09246373565097554
29.6,0.09265625245716505
29.68,0.09271628051326877
29.76,0.09249788233908005
29.84,0.09194035872836176
29.92,0.09109459505304321
30.0,0.09011212701079728
30.080000000000002,0.08919849654975082
30.16,0.08854583677906372
30.240000000000002,0.08826705310123331
30.32,0.08835299548964348
30.400000000000002,0.08866634919210639
30.48,0.08897505214169259
30.560000000000002,0.08901659686698961
30.64,0.08857456258923899
30.72,0.08754295212878031
30.8,0.08595610617691254
30.88,0.08397389376528852
30.96,0.08182988526570276
31.04,0.07976547691830821
31.12,0.07797665856602186
31.2,0.07659005402960177
31.28,0.07566751479138537
31.36,0.07522474515899671
31.44,0.07524673274036967
31.52,0.07569067471181164
31.6,0.07647863511602541
31.68,0.07748966423043974
31.76,0.0785612928869832
31.84,0.07950512820699127
31.92,0.08013491426015824
32.0,0.08030088952717165
32.08,0.07992220764305302
32.160000000000004,0.07900897258701108
32.24,0.07766677898109632
32.32,0.07607992997739468
32.4,0.07447486473042754
32.480000000000004,0.07307159891872869
32.56,0.07203572234139417
32.64,0.07144426453912772
32.72,0.07127470872310074
32.8,0.07141910962783574
32.88,0.07171769238669885
32.96,0.0720013327388247
33.04,0.07213123533656196
33.12,0.07202650658014043
33.2,0.07167482596682444
33.28,0.0711266101021511
33.36,0.07047754079046642
33.44,0.06984666227857607
33.52,0.06935641703260664
33.6,0.06911732470099084
33.68,0.06921567900001749
33.76,0.06970063108219936
33.84,0.07056906999147473
33.92,0.07175169940223693
34.0,0.07310813525825673
34.08,0.07443909770938029
34.160000000000004,0.0755186664043083
34.24,0.07614127678929118
34.32,0.07617082738498931
34.4,0.07557660226534374
34.480000000000004,0.07444392698746327
34.56,0.07295515394642524
34.64,0.07134575024003022
34.72,0.0698477782165787
34.800000000000004,0.06863648611465467
34.88,0.06779398344368832
34.96,0.06729785028957742
35.04,0.0670346628868302
35.12,0.06683214166197105
35.2,0.06650099315638774
35.28,0.06587803974432421
35.36,0.0648636756561027
35.44,0.0634473735869896
35.52,0.06171542112906675
35.6,0.05983731308351971
35.68,0.05803232081618227
35.76,0.05652407016642123
35.84,0.05549503722176063
35.92,0.055052233064471504
36.0,0.05521056502072866
36.08,0.05589452490599344
36.160000000000004,0.056954994903050914
36.24,0.05819683300493579
36.32,0.059413018041718
36.4,0.060420734711886664
36.480000000000004,0.061093657860608455
36.56,0.06138422687947025
36.64,0.061331210060795
36.72,0.06105109714288206
36.800000000000004,0.06071514629136853
36.88,0.060515777872227866
36.96,0.06062661729762679
37.04,0.061161329223188024
37.12,0.062138432935443216
37.2,0.06346149975932394
37.28,0.06492386843589065
37.36,0.06624220676949757
37.44,0.06711447517639439
37.52,0.06728854531360991
37.6,0.06662234638046424
37.68,0.06511787657119907
37.76,0.06291953002617587
37.84,0.06027877568185783
37.92,0.05749768057910331
38.0,0.054869097838350825
38.08,0.05262978136101057
38.160000000000004,0.05093541673384919
38.24,0.049857164677584706
38.32,0.04939218865142234
38.4,0.04947877896492614
38.480000000000004,0.050010051875114134
38.56,0.05084575679094371
38.64,0.05182541255771331
38.72,0.0527854811971994
38.800000000000004,0.053579501660224425
38.88,0.05409636338841232
38.96,0.054271273960247154
39.04,0.054086981758529135
39.12,0.053567194167556606
39.2,0.05276677045367917
39.28,0.05176259564652867
39.36,0.05064603618056877
39.44,0.04951510242004835
39.52,0.04846407241843999
39.6,0.047570676893439294
39.68,0.046884335925676285
39.76,0.046420811888108614
39.84,0.04616713527221734
39.92,0.046095886444996674
40.0,0.04618227983913873
40.08,0.04641460754783422
40.160000000000004,0.0467910806541772
40.24,0.047303501981276946
40.32,0.047916593136605026
40.4,0.048555881715184684
40.480000000000004,0.04911365159400962
40.56,0.04947301489305018
40.64,0.0495402162492091
40.72,0.04927094328934882
40.800000000000004,0.04868023080633209
40.88,0.04783470650413042
40.96,0.046834293655263474
41.04,0.045792957708957756
41.12,0.04482410833371402
41.2,0.04402991065079902
41.28,0.04349036146246172
41.36,0.04325004970865357
41.44,0.043305946139678544
41.52,0.04360347547520024
41.6,0.04404672175977348
41.68,0.0445221265497041
41.76,0.04492756320589901
41.84,0.04519522807093508
41.92,0.04529977576165681
42.0,0.045250718350368146
42.08,0.04507561758138691
42.160000000000004,0.04480367195001632
42.24,0.04445669419937071
42.32,0.0440485804261809
42.4,0.043589303382888966
42.480000000000004,0.04308819528572376
42.56,0.04255386927990937
42.64,0.04199209142448424
42.72,0.04140531070329235
42.800000000000004,0.040796970080077405
42.88,0.04018082662148089
42.96,0.03959210823591342
43.04,0.039095068695190686
43.12,0.038781271160862184
43.2,0.038755049851634374
43.28,0.03910690144342038
43.36,0.0398810057550309
43.44,0.04104748545736698
43.52,0.04249078375326985
43.6,0.04402133324897458
43.68,0.045409794382166135
43.76,0.04643509159641626
43.84,0.04693295583888703
43.92,0.04683226652382881
44.0,0.046170954334944815
44.08,0.04508886304618039
44.160000000000004,0.043799632551024065
44.24,0.04254694557816614
44.32,0.04155318316799872
44.4,0.04097114123619035
44.480000000000004,0.040850982710544596
44.56,0.041132907900253764
44.64,0.04166960927415524
44.72,0.04227247989548196
44.800000000000004,0.042765843152546834
44.88,0.04302946369545514
44.96,0.04301451365241033
45.04,0.04273051828566129
45.12,0.042214478676015854
45.2,0.041500879134162824
45.28,0.04060837780271131
45.36,0.039547530240599774
45.44,0.03834094044998424
45.52,0.03704050571623125
45.6,0.03572941580450079
45.68,0.034506569528344126
45.76,0.03346143812438192
45.84,0.03265217303275219
45.92,0.032097114694690856
46.0,0.03178232523529417
46.08,0.031679759055315775
46.160000000000004,0.03176587812058095
46.24,0.03203065620008095
46.32,0.03247185079132058
46.4,0.03307732056804665
46.480000000000004,0.03380562869529515
46.56,0.03457808475578075
46.64,0.03529103865044772
46.72,0.03584670137197436
46.800000000000004,0.036189298414168763
46.88,0.036327878354455195
46.96,0.03633182563023728
47.04,0.03629845393277932
47.12,0.03630698756206667
47.2,0.03638132629140766
47.28,0.03648032030901218
47.36,0.03652045049054484
47.44,0.03641916956642724
47.52,0.036136778920859966
47.6,0.03569625844255375
47.68,0.03517288684513664
47.76,0.03466155817912962
47.84,0.03424025348579982
47.92,0.03394756166446251
48.0,0.03378171513977759
48.08,0.03371539786956899
48.160000000000004,0.03371285663388737
48.24,0.03373782389726962
48.32,0.033750183315144136
48.4,0.03369921281624812
48.480000000000004,0.03352467527286755
48.56,0.033171629927409144
48.64,0.032614316468711844
48.72,0.03187606549209895
48.800000000000004,0.031031854159217585
48.88,0.030188547166494963
48.96,0.029450051856322698
49.04,0.028883188471299406
49.120000000000005,0.02849998744438431
49.2,0.02826370016705579
49.28,0.028114199133804182
49.36,0.028000111234558936
49.44,0.02790378118088195
49.52,0.027850323443791986
49.6,0.02789965393382749
49.68,0.028126332002601707
49.76,0.028594410952289373
49.84,0.029334063349847436
49.92,0.030325335969320424
50.0,0.03149297141191158
50.08,0.03271441468468343
50.160000000000004,0.033840216557709774
50.24,0.034722428002425774
50.32,0.03524382206299043
50.4,0.03534039400166157
50.480000000000004,0.035011725857139145
50.56,0.03431724092896232
50.64,0.03335974310941914
50.72,0.03226040853047324
50.800000000000004,0.031131615831793927
50.88,0.030055236173544848
50.96,0.029073042463570644
51.04,0.028191867099078935
51.120000000000005,0.02740003379679873
51.2,0.02668645676798962
51.28,0.0260529409905541
51.36,0.025514655129196453
51.44,0.025091044207980213
51.52,0.024795019137132814
51.6,0.024628448841750854
51.68,0.02458671250815246
51.76,0.024668069818401736
51.84,0.0248798585914649
51.92,0.025235694966890248
52.0,0.025744299932536057
52.08,0.026396567741384536
52.160000000000004,0.027158711213085218
52.24,0.027975093979302534
52.32,0.028778087255931173
52.4,0.029498728941227112
52.480000000000004,0.03007351119061183
52.56,0.030447493457961064
52.64,0.03057771119295939
52.72,0.03044015473712722
52.800000000000004,0.030038942962663098
52.88,0.029411753575171454
52.96,0.028625358202962022
53.04,0.027760162100418127
53.120000000000005,0.02688963892688311
53.2,0.02606440690704478
53.28,0.025308458478115352
53.36,0.024628087735559502
53.44,0.024026958888242415
53.52,0.023518029617676153
53.6,0.02312606385796898
53.68,0.022880850347368458
53.76,0.022806738418273298
53.84,0.02291546815940096
53.92,0.023206134496716047
54.0,0.023670867924898698
54.08,0.024300887445908116
54.160000000000004,0.025087410120859847
54.24,0.026015554084509503
54.32,0.027054572450733397
54.4,0.028151201797492725
54.480000000000004,0.029232235928586495
54.56,0.030217753805274583
54.64,0.031040415064758242
54.72,0.03166251846116264
54.800000000000004,0.03208331882798841
54.88,0.03233376464959111
54.96,0.03246140088300096
55.04,0.03251162082716509
