Frequency,PSD
6.057142857142857,0.29965158338936126
6.171428571428571,0.29717302857624367
6.285714285714286,0.29111036517351097
6.3999999999999995,0.2811262548341061
6.514285714285714,0.26930575297738163
6.628571428571428,0.25967678104900455
6.742857142857143,0.25584983244558807
6.857142857142857,0.25881527604388044
6.9714285714285715,0.2666198428205606
7.085714285714285,0.27584863746783933
7.2,0.2835099700458258
7.314285714285714,0.28810807479653466
7.428571428571428,0.2897097301413658
7.542857142857143,0.28945368563509194
7.657142857142857,0.28892723842078977
7.771428571428571,0.28965220381775064
7.885714285714285,0.29283305535242904
8.0,0.29934596303629124
8.114285714285714,0.30976854969367557
8.228571428571428,0.3243930974466277
8.342857142857143,0.3434649580417009
8.457142857142857,0.3677427061545901
8.571428571428571,0.3988458798640895
8.685714285714285,0.4385536135080844
8.799999999999999,0.4869210135361155
8.914285714285715,0.5403895211772172
9.028571428571428,0.5917314607097072
9.142857142857142,0.632723705717284
9.257142857142856,0.6583207826433286
9.371428571428572,0.6695911518296026
9.485714285714286,0.6733460111002333
9.6,0.6787702815683655
9.714285714285714,0.6932953910795416
9.828571428571427,0.7198711897831028
9.942857142857143,0.7563216472992856
10.057142857142857,0.7963748504727917
10.17142857142857,0.8319512643786953
10.285714285714285,0.8564463722592981
10.4,0.8680882049754661
10.514285714285714,0.8715225800463761
10.628571428571428,0.8760522296668527
10.742857142857142,0.8908828472377699
10.857142857142858,0.9198741116411059
10.971428571428572,0.9587348584152806
11.085714285714285,0.9960049264665182
11.2,1.017032912637417
11.314285714285713,1.0090304056271886
11.428571428571429,0.9653237685128268
11.542857142857143,0.8874716280111201
11.657142857142857,0.7846422310247374
11.77142857142857,0.6705837678163052
11.885714285714286,0.5594304052957557
12.0,0.4619544497464717
12.114285714285714,0.3834989928606902
12.228571428571428,0.3240083149038983
12.342857142857142,0.2797421245976546
12.457142857142857,0.24568991370816531
12.571428571428571,0.21759328863907493
12.685714285714285,0.19291254114387593
12.799999999999999,0.17075765156906234
12.914285714285715,0.151251066262553
13.028571428571428,0.13480259602054276
13.142857142857142,0.12158520849620019
13.257142857142856,0.11134547306672064
13.371428571428572,0.1035403848683885
13.485714285714286,0.09760890711066428
13.6,0.09311494149100859
13.714285714285714,0.08967959471181908
13.828571428571427,0.08687879245683902
13.942857142857143,0.0843019478207383
14.057142857142857,0.08173470391698288
14.17142857142857,0.0792592236470632
14.285714285714285,0.07716458952435151
14.4,0.07576524020880157
14.514285714285714,0.07527317973571129
14.628571428571428,0.07575176536919687
14.742857142857142,0.07709229909981136
14.857142857142856,0.07899468272550023
14.971428571428572,0.0810022591379172
15.085714285714285,0.08263047423893514
15.2,0.08354772511048789
15.314285714285713,0.083689982757196
15.428571428571429,0.08319638498500173
15.542857142857143,0.08218121324356288
15.657142857142857,0.08052989184455796
15.77142857142857,0.07793745694585896
15.885714285714284,0.07421402221291219
16.0,0.06962946210045398
16.114285714285714,0.06500825636653712
16.228571428571428,0.061469115245629716
16.34285714285714,0.05995537607708574
16.457142857142856,0.0608224379357159
16.57142857142857,0.0636922385426268
16.685714285714287,0.06763465875154512
16.8,0.07157878574798787
16.914285714285715,0.0747412798229064
17.02857142857143,0.07684133156011304
17.142857142857142,0.07800802480888115
17.257142857142856,0.0785192269260788
17.37142857142857,0.07863464399909913
17.485714285714284,0.07864113755166281
17.599999999999998,0.07894834394287212
17.714285714285715,0.07998661556465379
17.82857142857143,0.08188973714099505
17.942857142857143,0.08422947312445686
18.057142857142857,0.08608543826054649
18.17142857142857,0.08647565987538068
18.285714285714285,0.08489737377305205
18.4,0.08164813270926774
18.514285714285712,0.07773558932976073
18.628571428571426,0.07442387654249019
18.742857142857144,0.07265760826151571
18.857142857142858,0.07265944259482113
18.97142857142857,0.07390434836637716
19.085714285714285,0.07547442921249138
19.2,0.0765797969660047
19.314285714285713,0.07693117226934676
19.428571428571427,0.07676119019410084
19.54285714285714,0.07654174099739157
19.657142857142855,0.0766393050637336
19.771428571428572,0.07714585730982425
19.885714285714286,0.0779431710640946
20.0,0.07886649211513633
20.114285714285714,0.07979631129051958
20.228571428571428,0.0806364814977003
20.34285714285714,0.08126937360892245
20.457142857142856,0.08156221295849847
20.57142857142857,0.08138371732170566
20.685714285714287,0.08055911072690447
20.8,0.0788043228558692
20.914285714285715,0.07578050617104498
21.02857142857143,0.07132976802808794
21.142857142857142,0.06574853151095972
21.257142857142856,0.059859289670572545
21.37142857142857,0.05478119164449578
21.485714285714284,0.05153500668522145
21.599999999999998,0.050710567461501536
21.714285714285715,0.052315011106130946
21.82857142857143,0.055769394963739
21.942857142857143,0.059998450299397196
22.057142857142857,0.06364305003942959
22.17142857142857,0.06544718032251512
22.285714285714285,0.06473570745167433
22.4,0.06173297535128937
22.514285714285712,0.05749136743454619
22.628571428571426,0.05343843803473858
22.742857142857144,0.05080381385048438
22.857142857142858,0.050229454184538266
22.97142857142857,0.05168781284973724
23.085714285714285,0.054619426731256415
23.2,0.058139237562057494
23.314285714285713,0.06125319768542428
23.428571428571427,0.0631095384174262
23.54285714285714,0.06325710710496353
23.657142857142855,0.06177887844938118
23.771428571428572,0.0591930063633924
23.885714285714286,0.0561802215200552
24.0,0.053317101996163144
24.114285714285714,0.05094063229585732
24.228571428571428,0.049135530540097914
24.34285714285714,0.047782775937173824
24.457142857142856,0.046646278212633785
24.57142857142857,0.04549571005831262
24.685714285714283,0.04422278682436515
24.8,0.0428817029869249
24.914285714285715,0.041635707832934785
25.02857142857143,0.04066529267244268
25.142857142857142,0.040098519014234196
25.257142857142856,0.03997362731648639
25.37142857142857,0.040221404218895966
25.485714285714284,0.04067343455625382
25.599999999999998,0.04110401423544588
25.71428571428571,0.04128826752542175
25.82857142857143,0.04105621373981902
25.942857142857143,0.04034435670760453
26.057142857142857,0.039241169323411824
26.17142857142857,0.03799151896462308
26.285714285714285,0.03693043546120178
26.4,0.03637072371449483
26.514285714285712,0.03650325386394561
26.628571428571426,0.037342504578587066
26.742857142857144,0.03871247156709136
26.857142857142858,0.04027455050710851
26.97142857142857,0.04161934398936257
27.085714285714285,0.04241473548298579
27.2,0.04253900139275603
27.314285714285713,0.04211406577067063
27.428571428571427,0.04141886299688012
27.54285714285714,0.04074188821478703
27.657142857142855,0.0402615483177254
27.771428571428572,0.04002016530889038
27.885714285714286,0.04000138811325754
28.0,0.040246560579439365
28.114285714285714,0.04089830532590404
28.228571428571428,0.042103061790574214
28.34285714285714,0.043831819486265425
28.457142857142856,0.045775699036063766
28.57142857142857,0.047427705206757445
28.685714285714283,0.048302380753286606
28.8,0.04812814833055895
28.914285714285715,0.046890689417572774
29.02857142857143,0.044756054887567585
29.142857142857142,0.041993198902274674
29.257142857142856,0.03895799648944136
29.37142857142857,0.03608226311316734
29.485714285714284,0.0337856934510123
29.599999999999998,0.032328020344552476
29.71428571428571,0.031718086269166224
29.82857142857143,0.031768550871796156
29.942857142857143,0.032250775462834086
30.057142857142857,0.033007123822416974
30.17142857142857,0.03392416956085802
30.285714285714285,0.034819409000959256
30.4,0.03539681125040287
30.514285714285712,0.03536850750278723
30.628571428571426,0.034663635250020974
30.74285714285714,0.033527608013011016
30.857142857142858,0.03238992484747765
30.97142857142857,0.03158267466011779
31.085714285714285,0.03112618952819408
31.2,0.030742825141436798
31.314285714285713,0.030080810142501142
31.428571428571427,0.028981968473682403
31.54285714285714,0.02760819824390747
31.657142857142855,0.026348006616717864
31.77142857142857,0.025578248214805775
31.885714285714286,0.025451329224083503
32.0,0.02584574157167048
32.114285714285714,0.026487464833324176
32.22857142857143,0.0271320515217934
32.34285714285714,0.02768209800775072
32.457142857142856,0.028190341201725075
32.57142857142857,0.028779668465586994
32.68571428571428,0.02953911916710733
32.8,0.030445536327889877
32.91428571428571,0.031351015209158825
33.028571428571425,0.032058289761362255
33.14285714285714,0.03245162996255345
33.25714285714285,0.032587992985140354
33.371428571428574,0.03265933191802372
33.48571428571429,0.03283593140809712
33.6,0.033108505611188534
33.714285714285715,0.033255343851268174
33.82857142857143,0.03296075165074079
33.94285714285714,0.03199939563959891
34.05714285714286,0.03036872884221886
34.17142857142857,0.028300348812894446
34.285714285714285,0.026156886522265207
34.4,0.024279085498344986
34.51428571428571,0.022865116618880594
34.628571428571426,0.021935202606213868
34.74285714285714,0.02138157376691119
34.857142857142854,0.021062586031070592
34.97142857142857,0.020886678703176252
35.08571428571428,0.02084488062960871
35.199999999999996,0.020986440585495363
35.31428571428572,0.02137094890353907
35.42857142857143,0.022033885489573763
35.542857142857144,0.022966168543767474
35.65714285714286,0.024084350805167236
35.77142857142857,0.025196771921498544
35.885714285714286,0.026013734203966507
36.0,0.026237346136176058
36.114285714285714,0.025697589579151848
36.22857142857143,0.024448375867922433
36.34285714285714,0.022757724234515893
36.457142857142856,0.020997998981592
36.57142857142857,0.019500245287184876
36.68571428571428,0.01844440034559658
36.8,0.0178280336089289
36.91428571428571,0.017518828496530196
37.028571428571425,0.01736135314048824
37.14285714285714,0.017280077480828063
37.25714285714285,0.01731641296365231
37.371428571428574,0.017577000181466802
37.48571428571429,0.018134387249067768
37.6,0.018954453916963317
37.714285714285715,0.01989607669454335
37.82857142857143,0.020770176119773547
37.94285714285714,0.02141380947613705
38.05714285714286,0.021744516566993256
38.17142857142857,0.021780982622320623
38.285714285714285,0.021626972035206707
38.4,0.02142469651516731
38.51428571428571,0.02129808778641326
38.628571428571426,0.02131184497160429
38.74285714285714,0.02145887538415986
38.857142857142854,0.021671668803310236
38.97142857142857,0.02184859631353666
39.08571428571428,0.021886964321172667
39.199999999999996,0.021709850433267355
39.31428571428571,0.021274641868237586
39.42857142857143,0.020568659928222807
39.542857142857144,0.0196102836384138
39.65714285714286,0.018459026301080397
39.77142857142857,0.017214980230671268
39.885714285714286,0.01599473845526458
40.0,0.014901742203700942
40.114285714285714,0.014020351448054967
40.22857142857143,0.013435686099833857
40.34285714285714,0.013246159218351745
40.457142857142856,0.013534994278007176
40.57142857142857,0.01430770000955201
40.68571428571428,0.015446262559767762
40.8,0.016729853165502448
40.91428571428571,0.017920156177673487
41.028571428571425,0.01885585911968156
41.14285714285714,0.0194985241044395
41.25714285714285,0.019917022635832442
41.371428571428574,0.02023516279693272
41.48571428571429,0.020564055834775063
41.6,0.020929142309233206
41.714285714285715,0.021223087012342406
41.82857142857143,0.021241104639834876
41.94285714285714,0.0208156918317776
42.05714285714286,0.0199708748824063
42.17142857142857,0.018967787905316308
42.285714285714285,0.0181861545562525
42.4,0.017917604041810118
42.51428571428571,0.018213003082889874
42.628571428571426,0.01887897092152102
42.74285714285714,0.01961135571747348
42.857142857142854,0.020166311925776424
42.97142857142857,0.020454515631696032
43.08571428571428,0.020510182890762986
43.199999999999996,0.020390450624905077
43.31428571428571,0.020115659457395425
43.42857142857143,0.019706938383376862
43.542857142857144,0.019260527922504357
43.65714285714286,0.01894568950485276
43.77142857142857,0.01889283390798042
43.885714285714286,0.01906703167169265
44.0,0.019253738734387273
44.114285714285714,0.019182238111439008
44.22857142857143,0.018688488313426038
44.34285714285714,0.017795918837776113
44.457142857142856,0.016676453193996955
44.57142857142857,0.015549094240619253
44.68571428571428,0.014595589595784192
44.8,0.013926275942201397
44.91428571428571,0.01358026572334181
45.028571428571425,0.013537876324339441
45.14285714285714,0.013743317804191475
45.25714285714285,0.014141984072908243
45.37142857142857,0.01471919346681975
45.48571428571429,0.015510121944216559
45.6,0.016558937570634674
45.714285714285715,0.017840585093124493
45.82857142857143,0.0191980534764096
45.94285714285714,0.020355219672265064
46.05714285714286,0.02102010890792861
46.17142857142857,0.021021579537340573
46.285714285714285,0.02038694818377689
46.4,0.019309040150262538
46.51428571428571,0.01803622758686929
46.628571428571426,0.016770009897984894
46.74285714285714,0.015629272056188973
46.857142857142854,0.014674494671185567
46.97142857142857,0.01394624525854438
47.08571428571428,0.01348393109965912
47.199999999999996,0.013321082982517902
47.31428571428571,0.01346750161752898
47.42857142857143,0.013887609622775939
47.542857142857144,0.014487151184041187
47.65714285714286,0.015127251909139551
47.77142857142857,0.01567648759183956
47.885714285714286,0.016080505327630733
48.0,0.016399001978077477
48.114285714285714,0.016767813758901875
48.22857142857143,0.01729718905054238
48.34285714285714,0.01797638598375834
48.457142857142856,0.018662815351946218
48.57142857142857,0.01917483683327952
48.68571428571428,0.019431194820403085
48.8,0.019560303385355388
48.91428571428571,0.019962820701113843
49.028571428571425,0.02139900726244185
49.14285714285714,0.02519319219629275
49.25714285714285,0.033508790357407905
49.37142857142857,0.049335008254986004
49.48571428571429,0.07556486831266689
49.6,0.11284210527475184
49.714285714285715,0.15702195523041837
49.82857142857143,0.198397301470145
49.94285714285714,0.22459414718456253
50.05714285714286,0.22644520049218692
50.17142857142857,0.20312692189466242
50.285714285714285,0.1626822235878838
50.4,0.11750647233999427
50.51428571428571,0.07823454719008692
50.628571428571426,0.05006985422156698
50.74285714285714,0.032921818908849224
50.857142857142854,0.023837531781824267
50.97142857142857,0.019470006516602315
51.08571428571428,0.0173855508270089
51.199999999999996,0.016264681633984597
51.31428571428571,0.01557003699564649
51.42857142857142,0.015155078425306476
51.542857142857144,0.0150103046550898
51.65714285714286,0.015146928118205385
51.77142857142857,0.015550512594859775
51.885714285714286,0.016157153306610748
52.0,0.016847035007943854
52.114285714285714,0.01746618300103793
52.22857142857143,0.017872469219026663
52.34285714285714,0.017982631284637673
52.457142857142856,0.017793981270606548
52.57142857142857,0.017370188915582868
52.68571428571428,0.016806999582324084
52.8,0.016210505692400873
52.91428571428571,0.01570202919119151
53.028571428571425,0.015419042231546302
53.14285714285714,0.015468261367768911
53.25714285714285,0.015841369282894594
53.37142857142857,0.016371972686912425
53.48571428571429,0.016802100065181316
53.6,0.0169298035861393
53.714285714285715,0.016726537439866122
53.82857142857143,0.016334877817901376
53.94285714285714,0.015958955136244686
54.05714285714286,0.015738921148285505
54.17142857142857,0.01569435975934883
54.285714285714285,0.015755513497830873
54.4,0.01583908145030391
54.51428571428571,0.015907439040538283
54.628571428571426,0.01597640056098363
54.74285714285714,0.01607954165501159
54.857142857142854,0.01622473031544927
54.97142857142857,0.0163765683549057
55.08571428571428,0.01647512534290121
