Frequency,PSD
6.057142857142857,0.27286159184915393
6.171428571428571,0.27679538331829234
6.285714285714286,0.28470731093754087
6.3999999999999995,0.2966127637096162
6.514285714285714,0.31237345749987105
6.628571428571428,0.3315785944360996
6.742857142857143,0.3535227468593955
6.857142857142857,0.3773578805044827
6.9714285714285715,0.40240254247223944
7.085714285714285,0.42844966069902435
7.2,0.4558360908176579
7.314285714285714,0.4851300005265105
7.428571428571428,0.5165435869077117
7.542857142857143,0.5494181012306227
7.657142857142857,0.5821467715580353
7.771428571428571,0.6126451280676461
7.885714285714285,0.6391270509558642
8.0,0.6607711775551112
8.114285714285714,0.6779914306582577
8.228571428571428,0.6923285943307832
8.342857142857143,0.706199082982173
8.457142857142857,0.7227081657587043
8.571428571428571,0.7455070931983409
8.685714285714285,0.778455989689195
8.799999999999999,0.8248613107538362
8.914285714285715,0.88634799948323
9.028571428571428,0.9618255968505331
9.142857142857142,1.047183117838705
9.257142857142856,1.1360701778022906
9.371428571428572,1.2215127114885427
9.485714285714286,1.2976055716109303
9.6,1.3605058745818117
9.714285714285714,1.4084000244062849
9.828571428571427,1.4406535137819476
9.942857142857143,1.4566397622186966
10.057142857142857,1.4547829912504182
10.17142857142857,1.4323162256061415
10.285714285714285,1.3861334529049085
10.4,1.3146789951041682
10.514285714285714,1.2200628811209377
10.628571428571428,1.1090404242388092
10.742857142857142,0.991823045240855
10.857142857142858,0.8789520010406776
10.971428571428572,0.7778220488705457
11.085714285714285,0.6907952440802738
11.2,0.6158501070317637
11.314285714285713,0.5491076613126028
11.428571428571429,0.4875470185760527
11.542857142857143,0.43041507915583344
11.657142857142857,0.37891984637907694
11.77142857142857,0.3348774587581698
11.885714285714286,0.2993675396104969
12.0,0.27210384431708967
12.114285714285714,0.251606050092777
12.228571428571428,0.23583220424780643
12.342857142857142,0.22285233796508863
12.457142857142857,0.21128689392045746
12.571428571428571,0.20042200929911438
12.685714285714285,0.19006023441114056
12.799999999999999,0.1802519903662607
12.914285714285715,0.1710670632512859
13.028571428571428,0.16250029464063812
13.142857142857142,0.15450038993442886
13.257142857142856,0.14703978864238287
13.371428571428572,0.1401507962805272
13.485714285714286,0.13391097338848923
13.6,0.1284054090021995
13.714285714285714,0.1236936303441746
13.828571428571427,0.11978707531824823
13.942857142857143,0.11663486951300464
14.057142857142857,0.11412481166147763
14.17142857142857,0.11210900965966461
14.285714285714285,0.11044733058853466
14.4,0.1090454637403552
14.514285714285714,0.10787155063556762
14.628571428571428,0.10695908113598336
14.742857142857142,0.10641172417133728
14.857142857142856,0.10640352898577586
14.971428571428572,0.107144511934276
15.085714285714285,0.10879759747046938
15.2,0.11138469147871174
15.314285714285713,0.11475213411553482
15.428571428571429,0.11863171261546326
15.542857142857143,0.12275471903823607
15.657142857142857,0.12693020400603047
15.77142857142857,0.13103569739202015
15.885714285714284,0.13495579760066348
16.0,0.13855436832456164
16.114285714285714,0.14172802550051708
16.228571428571428,0.1444981307796698
16.34285714285714,0.1470438164518998
16.457142857142856,0.1496157617116319
16.57142857142857,0.1523720948456361
16.685714285714287,0.15525795204376822
16.8,0.15803767450605521
16.914285714285715,0.16048376687590543
17.02857142857143,0.16260111189646953
17.142857142857142,0.16471154267095994
17.257142857142856,0.16729389587229782
17.37142857142857,0.17063660970961908
17.485714285714284,0.17450889164221128
17.599999999999998,0.17808035312581677
17.714285714285715,0.1801848058192157
17.82857142857143,0.1798140272234022
17.942857142857143,0.17658386473503362
18.057142857142857,0.17093173965791114
18.17142857142857,0.16395877851603372
18.285714285714285,0.15701180424193648
18.4,0.15120554899515945
18.514285714285712,0.1470812272555559
18.628571428571426,0.14451756354955447
18.742857142857144,0.14290439733067928
18.857142857142858,0.14149107182818071
18.97142857142857,0.13975517004656182
19.085714285714285,0.13762684976710315
19.2,0.13546722579809797
19.314285714285713,0.13382069134575691
19.428571428571427,0.13308395243947074
19.54285714285714,0.13328461679407708
19.657142857142855,0.1340955342824204
19.771428571428572,0.13505590408826695
19.885714285714286,0.13582623060390334
20.0,0.13628182921963955
20.114285714285714,0.1363787146793182
20.228571428571428,0.135913744364276
20.34285714285714,0.13439653814725674
20.457142857142856,0.13117262958410442
20.57142857142857,0.12574797174263397
20.685714285714287,0.11811431161884439
20.8,0.10887022207998408
20.914285714285715,0.09906015768429687
21.02857142857143,0.08981388309579968
21.142857142857142,0.08196471312544748
21.257142857142856,0.07581998333734938
21.37142857142857,0.07116950799000649
21.485714285714284,0.06749689316528798
21.599999999999998,0.06426552837386122
21.714285714285715,0.061134450967821816
21.82857142857143,0.05802326742449921
21.942857142857143,0.05504117484623243
22.057142857142857,0.052357877878165544
22.17142857142857,0.050094557614510225
22.285714285714285,0.04827261914180162
22.4,0.04681762695918106
22.514285714285712,0.045597491140510836
22.628571428571426,0.04447276409061219
22.742857142857144,0.043340327812662165
22.857142857142858,0.04215606805794649
22.97142857142857,0.040930570209534695
23.085714285714285,0.039704077221267904
23.2,0.0385160527185477
23.314285714285713,0.03738454904475243
23.428571428571427,0.03630251098930336
23.54285714285714,0.035248911179662175
23.657142857142855,0.03420733206994147
23.771428571428572,0.03318350671395611
23.885714285714286,0.03221460460853949
24.0,0.03136628998366837
24.114285714285714,0.03071895410314846
24.228571428571428,0.030349780380695485
24.34285714285714,0.03031809125651959
24.457142857142856,0.030656146163370448
24.57142857142857,0.03136107409528287
24.685714285714283,0.032383616078477465
24.8,0.033617450359641685
24.914285714285715,0.03490086347923951
25.02857142857143,0.03604012487364147
25.142857142857142,0.036850713361844645
25.257142857142856,0.03719994896340579
25.37142857142857,0.037034217817141515
25.485714285714284,0.03638518256745172
25.599999999999998,0.03536026271273748
25.71428571428571,0.03412354533102131
25.82857142857143,0.03286705874522987
25.942857142857143,0.0317703242417443
26.057142857142857,0.030954224275496996
26.17142857142857,0.03044645649197823
26.285714285714285,0.030177335427897828
26.4,0.030011548862111312
26.514285714285712,0.02980208199466486
26.628571428571426,0.02944083369760258
26.742857142857144,0.028884156988816863
26.857142857142858,0.028147264326522977
26.97142857142857,0.027278544498848284
27.085714285714285,0.026332865936714397
27.2,0.025357750781490784
27.314285714285713,0.024392909595080812
27.428571428571427,0.023473250077312675
27.54285714285714,0.022626592305271823
27.657142857142855,0.021867342982410276
27.771428571428572,0.02119453543382015
27.885714285714286,0.020598451646165056
28.0,0.020069337139311718
28.114285714285714,0.019597753365156147
28.228571428571428,0.019165143650372727
28.34285714285714,0.018736237025496132
28.457142857142856,0.01826696230722076
28.57142857142857,0.017728362431211824
28.685714285714283,0.01713072652411108
28.8,0.0165291268854776
28.914285714285715,0.01600532111510406
29.02857142857143,0.01563867174130549
29.142857142857142,0.015484272725179413
29.257142857142856,0.015566476871500694
29.37142857142857,0.015881909282640293
29.485714285714284,0.016401310479154517
29.599999999999998,0.017066553929191992
29.71428571428571,0.017788854148675644
29.82857142857143,0.01845674529559156
29.942857142857143,0.01895646118201939
30.057142857142857,0.019198907380233717
30.17142857142857,0.019142816642771534
30.285714285714285,0.018804969263387504
30.4,0.018253944067525143
30.514285714285712,0.017590662538550347
30.628571428571426,0.016923535851388206
30.74285714285714,0.016345918842887518
30.857142857142858,0.01591972915780457
30.97142857142857,0.01566565670039851
31.085714285714285,0.015560603510270603
31.2,0.015545136820598372
31.314285714285713,0.015542784023978077
31.428571428571427,0.015486848986689717
31.54285714285714,0.015343393863654426
31.657142857142855,0.015118128815211782
31.77142857142857,0.014842941781464381
31.885714285714286,0.014550122991435845
32.0,0.014250472632279527
32.114285714285714,0.013929293362412592
32.22857142857143,0.013562557881939913
32.34285714285714,0.013141904878494485
32.457142857142856,0.012691002800947536
32.57142857142857,0.01226166816347988
32.68571428571428,0.011911779630681874
32.8,0.01167882019929012
32.91428571428571,0.01156503067794943
33.028571428571425,0.011542189697675773
33.14285714285714,0.011571994256893753
33.25714285714285,0.011629289103117798
33.371428571428574,0.011714191150541144
33.48571428571429,0.011845487596828807
33.6,0.012038492760762331
33.714285714285715,0.012280632501566866
33.82857142857143,0.012521236560331895
33.94285714285714,0.012684659792343506
34.05714285714286,0.012701050867944957
34.17142857142857,0.012536864517024467
34.285714285714285,0.012207322212809854
34.4,0.011765867494636128
34.51428571428571,0.011280870269029259
34.628571428571426,0.010815311580284117
34.74285714285714,0.010418048464440747
34.857142857142854,0.010123654860060042
34.97142857142857,0.009952244200455186
35.08571428571428,0.009904378572120655
35.199999999999996,0.009954019891816027
35.31428571428572,0.010047267185844309
35.42857142857143,0.010113041443726425
35.542857142857144,0.010085341052008335
35.65714285714286,0.009929113936292585
35.77142857142857,0.009657684511502774
35.885714285714286,0.00933229224167044
36.0,0.009043005102109121
36.114285714285714,0.00887962200125071
36.22857142857143,0.008904684227451515
36.34285714285714,0.009136743464892114
36.457142857142856,0.009545355900618068
36.57142857142857,0.01005594436043431
36.68571428571428,0.010563714306884426
36.8,0.010956765128807998
36.91428571428571,0.0111452427081814
37.028571428571425,0.01108734807006934
37.14285714285714,0.01080043457455587
37.25714285714285,0.010350788504820633
37.371428571428574,0.009826702130741683
37.48571428571429,0.009308388945210851
37.6,0.008848592750107014
37.714285714285715,0.008469651797444907
37.82857142857143,0.008172887116433774
37.94285714285714,0.007951454249090318
38.05714285714286,0.007799809951985415
38.17142857142857,0.007717662904691563
38.285714285714285,0.007709037997541121
38.4,0.0077772720954914845
38.51428571428571,0.007917241504213246
38.628571428571426,0.008108557284595612
38.74285714285714,0.008315420960434892
38.857142857142854,0.008496477773806604
38.97142857142857,0.008621293686065117
39.08571428571428,0.008684042883031907
39.199999999999996,0.008705181874628239
39.31428571428571,0.008718927301920127
39.42857142857143,0.008753298794940724
39.542857142857144,0.008814144380440668
39.65714285714286,0.00888212912039766
39.77142857142857,0.008923992501743677
39.885714285714286,0.008911188818492427
40.0,0.008835090030744668
40.114285714285714,0.008710499966954345
40.22857142857143,0.008566578829509154
40.34285714285714,0.008431611976495657
40.457142857142856,0.008320777350178592
40.57142857142857,0.008233005302378305
40.68571428571428,0.008156886411375732
40.8,0.00808051742647381
40.91428571428571,0.007998938612220473
41.028571428571425,0.007915501873457713
41.14285714285714,0.007837938866705078
41.25714285714285,0.007773013914914056
41.371428571428574,0.007723452451764767
41.48571428571429,0.007687925582761231
41.6,0.007662056868630078
41.714285714285715,0.007638270732944597
41.82857142857143,0.007604740091776614
41.94285714285714,0.007546060593062319
42.05714285714286,0.00744792466645518
42.17142857142857,0.007304869608156385
42.285714285714285,0.00712670617246427
42.4,0.006938554200779337
42.51428571428571,0.006772500747063974
42.628571428571426,0.006653889913426506
42.74285714285714,0.006588920049753438
42.857142857142854,0.006560267182384462
42.97142857142857,0.0065338072688734105
43.08571428571428,0.006474045484187253
43.199999999999996,0.006361283740998942
43.31428571428571,0.006202265743682658
43.42857142857143,0.006029010801663804
43.542857142857144,0.005886466653419769
43.65714285714286,0.005815171067662053
43.77142857142857,0.00583702474472763
43.885714285714286,0.00594967965331514
44.0,0.006130064731058563
44.114285714285714,0.006343476108883523
44.22857142857143,0.006553449838352517
44.34285714285714,0.006729135180991515
44.457142857142856,0.006849508241035026
44.57142857142857,0.006905714049320389
44.68571428571428,0.0069029876239593765
44.8,0.0068621157204646266
44.91428571428571,0.00681864527030728
45.028571428571425,0.006817707552573781
45.14285714285714,0.006904006313573738
45.25714285714285,0.007109182196506111
45.37142857142857,0.0074406294287023
45.48571428571429,0.007875774604990149
45.6,0.00836403911484199
45.714285714285715,0.008836301101011555
45.82857142857143,0.009219667092774823
45.94285714285714,0.009454045683370868
46.05714285714286,0.009506221491279564
46.17142857142857,0.009377113191034656
46.285714285714285,0.009099551546931916
46.4,0.0087275031696203
46.51428571428571,0.008321454531466774
46.628571428571426,0.007935751111493661
46.74285714285714,0.007611018154240461
46.857142857142854,0.007370919837842746
46.97142857142857,0.007221176440102032
47.08571428571428,0.0071506389373059585
47.199999999999996,0.00713610312398633
47.31428571428571,0.007151246138613289
47.42857142857143,0.007176451199477391
47.542857142857144,0.007204394653947741
47.65714285714286,0.0072386203375813555
47.77142857142857,0.0072870143234667305
47.885714285714286,0.007354905953491609
48.0,0.007441341286145605
48.114285714285714,0.0075387009127327095
48.22857142857143,0.007633747392798831
48.34285714285714,0.00770905200572621
48.457142857142856,0.007746081834941413
48.57142857142857,0.007732089707730998
48.68571428571428,0.007670828811427894
48.8,0.007593397347304384
48.91428571428571,0.007563253759093857
49.028571428571425,0.007670461499342498
49.14285714285714,0.008013523848636009
49.25714285714285,0.008670552240995229
49.37142857142857,0.009664659879749826
49.48571428571429,0.010933097413714881
49.6,0.01231528994690788
49.714285714285715,0.013575600484685462
49.82857142857143,0.014464963306692242
49.94285714285714,0.014802868081049554
50.05714285714286,0.014542190514601868
50.17142857142857,0.01378189363461672
50.285714285714285,0.012719899826735296
50.4,0.01157257814386044
50.51428571428571,0.010503503216067377
50.628571428571426,0.009592411436004814
50.74285714285714,0.00884763839509081
50.857142857142854,0.008242796826678408
50.97142857142857,0.007753055216141598
51.08571428571428,0.007375197172524982
51.199999999999996,0.007128336005234275
51.31428571428571,0.007040788665967174
51.42857142857142,0.007131365218100439
51.542857142857144,0.007392477982156861
51.65714285714286,0.007780810740110408
51.77142857142857,0.008219733638812052
51.885714285714286,0.008615026327778387
52.0,0.00888055618920491
52.114285714285714,0.008964706288589414
52.22857142857143,0.008865625127867675
52.34285714285714,0.00862720156750093
52.457142857142856,0.008317091110672881
52.57142857142857,0.007997675850163016
52.68571428571428,0.0077044527835098365
52.8,0.007441690229294676
52.91428571428571,0.007195162404500192
53.028571428571425,0.006952466641030399
53.14285714285714,0.006718299503468548
53.25714285714285,0.00651652076097103
53.37142857142857,0.006379407306271539
53.48571428571429,0.006331458968358418
53.6,0.006376634993555924
53.714285714285715,0.006494389562763554
53.82857142857143,0.006644761617705785
53.94285714285714,0.006779315641785726
54.05714285714286,0.006853896044798408
54.17142857142857,0.006839883163370802
54.285714285714285,0.006731472626604787
54.4,0.006546988076495575
54.51428571428571,0.006323089335929549
54.628571428571426,0.006102822263160166
54.74285714285714,0.005921477186483389
54.857142857142854,0.005796327940248529
54.97142857142857,0.005725341061681207
55.08571428571428,0.005695462424314627
