Frequency,PSD
6.0,0.3831862449838522
6.08,0.3840115450410036
6.16,0.38583200294022146
6.24,0.3888993152970974
6.32,0.3934222783097676
6.4,0.39948216124657077
6.48,0.40704787716157675
6.5600000000000005,0.4160950919057313
6.640000000000001,0.4267682562078992
6.72,0.4394860638781324
6.8,0.45489898274093654
6.88,0.4736589402319783
6.96,0.49603975337853273
7.04,0.5215297278036635
7.12,0.5485714298995769
7.2,0.5746091763449246
7.28,0.5965064464721694
7.36,0.6112464624384419
7.44,0.616701212133656
7.5200000000000005,0.6122120510480676
7.6000000000000005,0.5987873558482691
7.68,0.5788583649641226
7.76,0.5556858710775867
7.84,0.5326197769069079
7.92,0.512441085581222
8.0,0.4969560201824949
8.08,0.48689871885468444
8.16,0.4820897091349081
8.24,0.48173874586935994
8.32,0.4847818274679752
8.4,0.4901769646820954
8.48,0.4971162594797801
8.56,0.5051273718327074
8.64,0.5140483745531397
8.72,0.5238903678049754
8.8,0.5346565268042331
8.88,0.5462324312705196
8.96,0.5584504449673696
9.040000000000001,0.5713380155034965
9.120000000000001,0.5854246625573399
9.200000000000001,0.6018906695315716
9.28,0.6223678613114361
9.36,0.648359957440532
9.44,0.6804683281545225
9.52,0.7177722956221734
9.6,0.7577132103236911
9.68,0.7966294266207058
9.76,0.8307615304837913
9.84,0.857276679237391
9.92,0.874837895312276
10.0,0.8835165516974308
10.08,0.8842461506389296
10.16,0.87826225099019
10.24,0.8668952542494145
10.32,0.8517601184608219
10.4,0.8350778696955273
10.48,0.8197818551924786
10.56,0.8092187662037891
10.64,0.8064957256003764
10.72,0.8136891276410195
10.8,0.831168807560433
10.88,0.8572513242568071
10.96,0.8883344124570007
11.040000000000001,0.9195808085048991
11.120000000000001,0.9460770168050102
11.200000000000001,0.9641891004924121
11.28,0.9726549490296263
11.36,0.9729281755046912
11.44,0.9685166203100601
11.52,0.9634881029408421
11.6,0.9607412769880513
11.68,0.9608079118779987
11.76,0.9617339559181997
11.84,0.9600739924050289
11.92,0.9525001211306225
12.0,0.9372581631462498
12.08,0.9148302972471573
12.16,0.8875920181635875
12.24,0.858741319797437
12.32,0.831081391365011
12.4,0.8062253798830311
12.48,0.7845020252147761
12.56,0.7654487685697076
12.64,0.7484994142369115
12.72,0.7334468530443747
12.8,0.7204750579617824
12.88,0.7098540662209747
12.96,0.7015828557863393
13.040000000000001,0.6952414980948818
13.120000000000001,0.690119849414106
13.200000000000001,0.6854769933766807
13.280000000000001,0.6807022576174946
13.36,0.6752432053149928
13.44,0.6683633166260066
13.52,0.6589496699601839
13.6,0.6455941525189872
13.68,0.627009408422753
13.76,0.602615547912369
13.84,0.5729967401496084
13.92,0.539974235032698
14.0,0.5062442712577813
14.08,0.47474942245151003
14.16,0.44804899470555604
14.24,0.427887155260219
14.32,0.4150071984444105
14.4,0.4091503252719048
14.48,0.4091685023975785
14.56,0.41323365912139204
14.64,0.4191548754298088
14.72,0.4247788510794684
14.8,0.4283820342116282
14.88,0.42893577794899396
14.96,0.42617303109571836
15.040000000000001,0.4204730049744205
15.120000000000001,0.41264190998497563
15.200000000000001,0.4036655692651623
15.280000000000001,0.3944674243064631
15.36,0.3856802882942955
15.44,0.377462038780394
15.52,0.3694248118878524
15.6,0.36074526189697886
15.68,0.3504541653202423
15.76,0.3378055315652096
15.84,0.3225701035699283
15.92,0.30512911899716744
16.0,0.2863434074304734
16.080000000000002,0.26727982004780926
16.16,0.24893360669072231
16.240000000000002,0.23206775343784014
16.32,0.21721322412842084
16.4,0.2047790540077461
16.48,0.19515878437732076
16.56,0.18872651603557003
16.64,0.18569208894338063
16.72,0.18588738281122968
16.8,0.18862008136364217
16.88,0.19271355367319742
16.96,0.19675951480012985
17.04,0.19949853031086406
17.12,0.20017652056152888
17.2,0.19873597768454004
17.28,0.19577443944587553
17.36,0.19229558190053225
17.44,0.18934725012743528
17.52,0.18766637451980311
17.6,0.1874375056877503
17.68,0.18823386025023986
17.76,0.18915823394895295
17.84,0.18914268940673445
17.92,0.18731159254679774
18.0,0.18328237479576598
18.080000000000002,0.1772928590742867
18.16,0.17010693475876942
18.240000000000002,0.1627387220087179
18.32,0.15610788922215316
18.400000000000002,0.15075985775816816
18.48,0.14674598582972656
18.56,0.14368373312348667
18.64,0.1409448114343138
18.72,0.13788302209554343
18.8,0.13402201685318807
18.88,0.12916100224475752
18.96,0.12339611204285145
19.04,0.11707637619880373
19.12,0.11071446822191904
19.2,0.10486802992307256
19.28,0.10001139693626715
19.36,0.09642903097520811
19.44,0.09416587825101465
19.52,0.09305337624726637
19.6,0.09279751980226596
19.68,0.09308748985622717
19.76,0.0936783625829862
19.84,0.09442080896018014
19.92,0.09523969089846729
20.0,0.09608480927259536
20.080000000000002,0.0968829699492433
20.16,0.09751357211455022
20.240000000000002,0.0978166289560118
20.32,0.09762807955150277
20.400000000000002,0.09682660059135269
20.48,0.09537224379897372
20.56,0.09332146152969886
20.64,0.09081323839507034
20.72,0.08803230048370721
20.8,0.08516321166298484
20.88,0.08235131538421847
20.96,0.07968272077376798
21.04,0.0771872381212689
21.12,0.07485869734772263
21.2,0.0726811164356473
21.28,0.07064960428658836
21.36,0.06878000686915826
21.44,0.06710660654965053
21.52,0.06567017551743622
21.6,0.06450079448619858
21.68,0.06360258763233248
21.76,0.06294848316322964
21.84,0.06248840092269381
21.92,0.062165170566639276
22.0,0.06192687109018997
22.080000000000002,0.06172885373379346
22.16,0.06153016533266534
22.240000000000002,0.06129562977196725
22.32,0.061008226581445245
22.400000000000002,0.060681898010016166
22.48,0.06035750316201659
22.56,0.060074249152998346
22.64,0.05982955835915403
22.72,0.059554376555051136
22.8,0.05912493206595786
22.88,0.05840895026335603
22.96,0.05732159426739846
23.04,0.055861050372588435
23.12,0.05410876835123135
23.2,0.05220210504454436
23.28,0.050300005935727705
23.36,0.04855756996892728
23.44,0.04711026195527392
23.52,0.0460581735768352
23.6,0.04544414505249738
23.68,0.04523241578657564
23.76,0.04530388050846989
23.84,0.045480382700004145
23.92,0.045575365902331244
24.0,0.04545219134796052
24.080000000000002,0.045065205543371935
24.16,0.04446574260819196
24.240000000000002,0.04377118435661896
24.32,0.04311148712333021
24.400000000000002,0.04257654141467117
24.48,0.042185681087713624
24.560000000000002,0.04188917046443346
24.64,0.041596576436378416
24.72,0.041216012310772085
24.8,0.04068619178511393
24.88,0.03998990972388619
24.96,0.03914845240168618
25.04,0.038205518723233245
25.12,0.03721208171869834
25.2,0.03621941039268846
25.28,0.03527942127326146
25.36,0.03444528502132311
25.44,0.03376530907156604
25.52,0.03326949527519183
25.6,0.03295582809318606
25.68,0.03278605705289758
25.76,0.032696044334924776
25.84,0.03261696585920225
25.92,0.03249713864529671
26.0,0.03231439298914238
26.080000000000002,0.03207503516141896
26.16,0.03180284947956728
26.240000000000002,0.03152545535022606
26.32,0.03126415614206408
26.400000000000002,0.031029383249797284
26.48,0.030820443328768744
26.560000000000002,0.030627459383004547
26.64,0.030434489174311737
26.72,0.030223735814233613
26.8,0.029980195420310805
26.88,0.029694651494240578
26.96,0.029362624835717752
27.04,0.02897909447680827
27.12,0.028532532841251568
27.2,0.028003937728425632
27.28,0.027374373441737456
27.36,0.026638606086356556
27.44,0.025816928645347337
27.52,0.024956876009868956
27.6,0.024122142291562863
27.68,0.023373663158621976
27.76,0.022751981474414432
27.84,0.022268263754054655
27.92,0.02190595172110226
28.0,0.021630257801902336
28.080000000000002,0.02140092457711494
28.16,0.02118423245836039
28.240000000000002,0.02096142406401503
28.32,0.020731819858914854
28.400000000000002,0.02051026473516635
28.48,0.020320145955598067
28.560000000000002,0.020184244793193182
28.64,0.020115673654862484
28.72,0.020110851505040085
28.8,0.02014676256484074
28.88,0.020184943405003472
28.96,0.02018283340651974
29.04,0.02010879523225386
29.12,0.019953052000552772
29.2,0.01972727885950342
29.28,0.019452052802294683
29.36,0.01913993467262223
29.44,0.0187859836625268
29.52,0.018373160281658647
29.6,0.017889933613911814
29.68,0.01734868548812766
29.76,0.016792458681744383
29.84,0.016284848568558784
29.92,0.015888198730131455
30.0,0.01564178618510307
30.080000000000002,0.015550546223675977
30.16,0.015587617643326272
30.240000000000002,0.0157059241074935
30.32,0.01585043334380563
30.400000000000002,0.015965385650625986
30.48,0.0159969076899294
30.560000000000002,0.015895990727256035
30.64,0.015626287416318847
30.72,0.015176179517487003
30.8,0.014569243580722197
30.88,0.013865906812338732
30.96,0.01315284167449156
31.04,0.012522788600681126
31.12,0.012051970428086723
31.2,0.011782810092801726
31.28,0.011716938805082665
31.36,0.011819654002235913
31.44,0.01203366156561534
31.52,0.01229747865495558
31.6,0.012562332648348334
31.68,0.0128014679627727
31.76,0.013008394080381482
31.84,0.013185500943386903
31.92,0.013329427689273523
32.0,0.01342155740885244
32.08,0.013429358378030266
32.160000000000004,0.013318190926234505
32.24,0.013067176278922676
32.32,0.012680426218372034
32.4,0.012187726722359604
32.480000000000004,0.011634806771211922
32.56,0.011068780449402498
32.64,0.010526035952542683
32.72,0.01002728921140042
32.8,0.009579967612598864
32.88,0.009184560540431201
32.96,0.008840733817575792
33.04,0.008550495402023003
33.12,0.008318015343171324
33.2,0.008147453613115566
33.28,0.00804069936413436
33.36,0.007996368799085503
33.44,0.00801030572628525
33.52,0.00807689497520723
33.6,0.008190238855048104
33.68,0.00834466770063656
33.76,0.008534707891970932
33.84,0.008754971244976954
33.92,0.00900020924977592
34.0,0.009265202283014366
34.08,0.009543786879052382
34.160000000000004,0.009826719125515505
34.24,0.010099255748205211
34.32,0.010340479394044755
34.4,0.01052624425534566
34.480000000000004,0.010635647943653324
34.56,0.010658242281687373
34.64,0.01059793918396107
34.72,0.010471110263715758
34.800000000000004,0.01029983764335659
34.88,0.010104085502951856
34.96,0.00989668712155915
35.04,0.009682695573079745
35.12,0.009461910090816445
35.2,0.009232226781203579
35.28,0.008992149044771719
35.36,0.008742128262088913
35.44,0.008485134502184384
35.52,0.00822673392622315
35.6,0.007974569288320828
35.68,0.007737076400005554
35.76,0.007521563465768422
35.84,0.007332142610995969
35.92,0.0071682329496383194
36.0,0.007024411974349916
36.08,0.006892181278538788
36.160000000000004,0.006763552340595972
36.24,0.006635309523322077
36.32,0.006511945710195026
36.4,0.006405395575482984
36.480000000000004,0.006331104950851145
36.56,0.0063019716368250146
36.64,0.006322957959484491
36.72,0.006388798294790969
36.800000000000004,0.006485461584022136
36.88,0.006594095947372434
36.96,0.006695285077005177
37.04,0.006771929626046738
37.12,0.006810361070989035
37.2,0.006800499549625459
37.28,0.006736328513057228
37.36,0.006617475431401608
37.44,0.0064514902609966365
37.52,0.006255153398002946
37.6,0.006052744808429739
37.68,0.0058703273295068956
37.76,0.005727449947172733
37.84,0.005629869911473597
37.92,0.005567254737379626
38.0,0.005517713942879191
38.08,0.005457494873188609
38.160000000000004,0.00537139760016779
38.24,0.005259117516853092
38.32,0.005134902653392861
38.4,0.005021184824434638
38.480000000000004,0.004939375696650199
38.56,0.004901739293224244
38.64,0.004907246026352176
38.72,0.004942418044202201
38.800000000000004,0.004986322284113363
38.88,0.005017649024902962
38.96,0.0050214072363665724
39.04,0.004993085780750996
39.12,0.004939011278753722
39.2,0.0048729113457478684
39.28,0.004810074762377797
39.36,0.004761464922659058
39.44,0.004730124721470555
39.52,0.004711080235915385
39.6,0.004694304920631787
39.68,0.004669124201435369
39.76,0.004628298335227316
39.84,0.004570649960411459
39.92,0.004501775395657002
40.0,0.004432705799509722
40.08,0.004376625706662986
40.160000000000004,0.004344336061644501
40.24,0.004339979360966343
40.32,0.004358961408754535
40.4,0.004389390837989549
40.480000000000004,0.004416796267078119
40.56,0.0044301894785539735
40.64,0.004426705361655313
40.72,0.004412569410523152
40.800000000000004,0.004399788272667947
40.88,0.004399948020716539
40.96,0.004417918953092594
41.04,0.004448445703869597
41.12,0.004477419625935762
41.2,0.004487557218878567
41.28,0.004466132993485635
41.36,0.004411281105833852
41.44,0.004333789248254327
41.52,0.004253232861281182
41.6,0.004189984209996755
41.68,0.004156793450204874
41.76,0.004154026742666079
41.84,0.004170831730023789
41.92,0.004191365534137632
42.0,0.004202591857798109
42.08,0.004199624774090288
42.160000000000004,0.004186372511996782
42.24,0.004171993267734291
42.32,0.004165615945293404
42.4,0.004171960646712387
42.480000000000004,0.004189331209397788
42.56,0.004210074211634766
42.64,0.0042228175504864345
42.72,0.004215644258712269
42.800000000000004,0.004179407768069728
42.88,0.00411039675349327
42.96,0.0040116289080689704
43.04,0.0038924052932655037
43.12,0.0037663362035793985
43.2,0.003648520869062623
43.28,0.0035526412778515495
43.36,0.003488477878846319
43.44,0.003460115140237821
43.52,0.0034651247573448327
43.6,0.0034951562297131852
43.68,0.003538230451397865
43.76,0.003582400319043994
43.84,0.0036195843991670713
43.92,0.0036479205131311875
44.0,0.0036714087102426417
44.08,0.0036968338226272147
44.160000000000004,0.00372932935060054
44.24,0.0037686770795280263
44.32,0.003808111493950623
44.4,0.0038362113740138086
44.480000000000004,0.003841064615069563
44.56,0.00381497500815748
44.64,0.003757889705323699
44.72,0.003678357282526027
44.800000000000004,0.0035917765565533083
44.88,0.003516538166233492
44.96,0.0034691507226121583
45.04,0.003459578016039456
45.12,0.003487931566980608
45.2,0.0035434630375741002
45.28,0.003606431180923717
45.36,0.0036527549141095704
45.44,0.003660442673121475
45.52,0.003615947081884313
45.6,0.0035183365987815664
45.68,0.0033798049362289938
45.76,0.003222363773204076
45.84,0.0030719558181391965
45.92,0.0029520142178454493
46.0,0.002878401338001855
46.08,0.0028569107326165306
46.160000000000004,0.002883575115175587
46.24,0.002947234848708971
46.32,0.003033298958187991
46.4,0.0031274120497753848
46.480000000000004,0.003217919213855478
46.56,0.0032966325376831973
46.64,0.003358218979221325
46.72,0.003399088837320683
46.800000000000004,0.0034166143876413445
46.88,0.0034089427399889953
46.96,0.0033750872299617186
47.04,0.003314872720978808
47.12,0.0032287082135077846
47.2,0.0031176209878594485
47.28,0.002983998638693558
47.36,0.0028329542818235007
47.44,0.0026735820568291394
47.52,0.002519168766173304
47.6,0.0023858612999943553
47.68,0.002290014396712746
47.76,0.002244928293840716
47.84,0.0022577124770803945
47.92,0.00232682951098526
48.0,0.0024408589965450693
48.08,0.0025791998655748556
48.160000000000004,0.002715367115554909
48.24,0.0028227857400881656
48.32,0.002881656054324888
48.4,0.0028843725186140923
48.480000000000004,0.0028370736930314992
48.56,0.002756455070722242
48.64,0.0026632204405662233
48.72,0.0025751365417704328
48.800000000000004,0.0025026161111096207
48.88,0.002448165879558109
48.96,0.0024089425183943663
49.04,0.0023803193707760267
49.120000000000005,0.0023584281587910733
49.2,0.0023408099723889325
49.28,0.002325676959663743
49.36,0.0023109913470202234
49.44,0.002294332955874133
49.52,0.0022737104247196396
49.6,0.0022487121492549035
49.68,0.0022211499322654336
49.76,0.0021946730217087956
49.84,0.0021734399468509996
49.92,0.002160446835624153
50.0,0.002156254827700276
50.08,0.0021585982526887287
50.160000000000004,0.0021628860435322222
50.24,0.00216324019704707
50.32,0.002153656954415259
50.4,0.0021290815214824836
50.480000000000004,0.0020864009014926084
50.56,0.00202535902253078
50.64,0.0019492003336006938
50.72,0.0018646797387768428
50.800000000000004,0.001781150791036034
50.88,0.0017087688650094766
50.96,0.001656238526973556
51.04,0.0016287791251228846
51.120000000000005,0.0016269657226548016
51.2,0.001646833772350302
51.28,0.0016812107378465571
51.36,0.001721807717537955
51.44,0.0017613474419830681
51.52,0.0017950519936367829
51.6,0.001821147146797951
51.68,0.0018404729752344133
51.76,0.0018555805198505922
51.84,0.001869722686470227
51.92,0.0018859922020552419
52.0,0.001906693782498612
52.08,0.0019329625576284225
52.160000000000004,0.0019646266245590144
52.24,0.0020002875808647607
52.32,0.002037550232332607
52.4,0.002073316729682851
52.480000000000004,0.0021040895687703294
52.56,0.002126265907250787
52.64,0.002136419253864438
52.72,0.00213157073762548
52.800000000000004,0.0021094802514081117
52.88,0.002069013489039819
52.96,0.0020105975786926166
53.04,0.0019366480679955606
53.120000000000005,0.0018517237906703378
53.2,0.0017621808325359554
53.28,0.0016753039176125532
53.36,0.0015981864918142904
53.44,0.0015368064716595603
53.52,0.0014956500496424163
53.6,0.0014778887690007842
53.68,0.0014857164780883924
53.76,0.0015202806509150317
53.84,0.0015808761884912289
53.92,0.001663641907934056
54.0,0.0017605816995193966
54.08,0.001859900864457126
54.160000000000004,0.0019481672414618399
54.24,0.002013842512395452
54.32,0.0020508185719668123
54.4,0.002060332532125397
54.480000000000004,0.0020502673473790233
54.56,0.002032063574662784
54.64,0.0020165831973763737
54.72,0.002010660540745596
54.800000000000004,0.0020155932392610263
54.88,0.0020278333829992275
54.96,0.0020412276735580995
55.04,0.0020497445113616328
