Frequency,PSD
6.0,0.44560093141421164
6.08,0.44652982418359555
6.16,0.44825444656875096
6.24,0.4505457169722005
6.32,0.45314254334522125
6.4,0.4558243562652258
6.48,0.4584720228622597
6.5600000000000005,0.4611004211354123
6.640000000000001,0.46385395953448755
6.72,0.46696633029028706
6.8,0.47069492751666003
6.88,0.4752463036644139
6.96,0.48071058034923064
7.04,0.4870199751576555
7.12,0.4939406952691615
7.2,0.5011000485394174
7.28,0.5080434113786811
7.36,0.5143100147871015
7.44,0.5195132400097855
7.5200000000000005,0.5234106557035554
7.6000000000000005,0.5259513317993809
7.68,0.527292533033946
7.76,0.5277837945321089
7.84,0.5279223670829154
7.92,0.528288805109312
8.0,0.5294740946299777
8.08,0.5320098481362143
8.16,0.5363111031045108
8.24,0.5426380315628446
8.32,0.5510793896681913
8.4,0.5615575158800211
8.48,0.5738523572222355
8.56,0.5876402133154108
8.64,0.6025413898327963
8.72,0.6181697076477379
8.8,0.6341761252881272
8.88,0.6502791344899446
8.96,0.6662765437675071
9.040000000000001,0.6820368285151136
9.120000000000001,0.697472849425401
9.200000000000001,0.7125053170360787
9.28,0.7270265411564669
9.36,0.7408755795682548
9.44,0.7538333815272192
9.52,0.7656413497977061
9.6,0.7760402862667146
9.68,0.784820845290435
9.76,0.7918731950872608
9.84,0.7972236088488309
9.92,0.8010490308693857
10.0,0.803666042159758
10.08,0.8054962643775243
10.16,0.8070144555172803
10.24,0.8086875439874364
10.32,0.8109128093061718
10.4,0.8139622453676296
10.48,0.8179388311470961
10.56,0.8227495095854445
10.64,0.8280989760832989
10.72,0.8335072723278023
10.8,0.8383520616565752
10.88,0.8419332076866142
10.96,0.843553424591998
11.040000000000001,0.8426053134295155
11.120000000000001,0.8386530762947784
11.200000000000001,0.8314972533644762
11.28,0.8212130009108826
11.36,0.8081562198877401
11.44,0.7929364484268453
11.52,0.7763600098926271
11.6,0.7593507777475889
11.68,0.7428586132072692
11.76,0.7277667841476652
11.84,0.714809384333045
11.92,0.7045080071757759
12.0,0.6971339435092525
12.08,0.6926984236677869
12.16,0.6909695255820141
12.24,0.691510992668612
12.32,0.6937359234825571
12.4,0.6969674403618378
12.48,0.700499005932971
12.56,0.7036486807437878
12.64,0.7058037162455943
12.72,0.7064538337574899
12.8,0.7052129153646918
12.88,0.7018295267936787
12.96,0.6961869493069245
13.040000000000001,0.6882936493416656
13.120000000000001,0.6782657194462709
13.200000000000001,0.6663038278196697
13.280000000000001,0.6526682659369932
13.36,0.6376561778763141
13.44,0.6215844452804993
13.52,0.6047798438627279
13.6,0.5875754175860362
13.68,0.5703094550679466
13.76,0.5533220473276336
13.84,0.5369446743145775
13.92,0.521480649209707
14.0,0.5071778334517927
14.08,0.4941986010314474
14.16,0.48259429682538
14.24,0.4722915319038139
14.32,0.46309544521437707
14.4,0.4547111649421741
14.48,0.44678030781093625
14.56,0.43892580220965194
14.64,0.43079667080115247
14.72,0.4221050935828625
14.8,0.41265076136982837
14.88,0.40233124165626233
14.96,0.3911405285751567
15.040000000000001,0.3791600092154062
15.120000000000001,0.366546196071555
15.200000000000001,0.35351797140799607
15.280000000000001,0.3403436574898793
15.36,0.327326155847686
15.44,0.31478367549894704
15.52,0.30302457189182097
15.6,0.2923171714802186
15.68,0.28285821122532195
15.76,0.27474555470820916
15.84,0.26796130774436605
15.92,0.2623700752633768
16.0,0.2577342398946686
16.080000000000002,0.25374461606245896
16.16,0.2500615996904163
16.240000000000002,0.2463597929552634
16.32,0.2423684852358439
16.4,0.23790136196195272
16.48,0.23287109474134093
16.56,0.2272875099233923
16.64,0.22124119939846448
16.72,0.21487708830250113
16.8,0.20836407530354328
16.88,0.20186708412626614
16.96,0.1955266743284027
17.04,0.1894490527381801
17.12,0.18370649504313774
17.2,0.17834557739261098
17.28,0.1733989270369981
17.36,0.16889585712187105
17.44,0.16486826816503225
17.52,0.16135016888012732
17.6,0.15837140239453204
17.68,0.15594793613468041
17.76,0.15407188081383177
17.84,0.15270412574211017
17.92,0.15177138457924688
18.0,0.15116805427832042
18.080000000000002,0.1507621353907855
18.16,0.15040388756470016
18.240000000000002,0.14993594456124953
18.32,0.14920406300403702
18.400000000000002,0.14806816959213454
18.48,0.1464135851745097
18.56,0.14416210108378508
18.64,0.14128204934418423
18.72,0.13779590664848618
18.8,0.13378362578736733
18.88,0.12938004739219489
18.96,0.12476548416496536
19.04,0.1201497545595207
19.12,0.11575127172758491
19.2,0.11177390047199691
19.28,0.10838487288789136
19.36,0.10569695306643981
19.44,0.10375730973900443
19.52,0.10254440357970224
19.6,0.10197291173775516
19.68,0.10190556458622275
19.76,0.10216993677269418
19.84,0.1025777844453297
19.92,0.1029444368374695
20.0,0.10310597798432616
20.080000000000002,0.1029324326293457
20.16,0.10233583937084156
20.240000000000002,0.10127287829995503
20.32,0.09974251215243368
20.400000000000002,0.09777976402670185
20.48,0.0954471601798698
20.56,0.092825433721797
20.64,0.09000482236458295
20.72,0.08707780144191997
20.8,0.08413353298312504
20.88,0.0812538475997829
20.96,0.07851032228236485
21.04,0.0759620052805692
21.12,0.07365351912349048
21.2,0.07161354186985483
21.28,0.06985390990858265
21.36,0.06836971185763885
21.44,0.06714070663599861
21.52,0.06613420503723463
21.6,0.06530925289252633
21.68,0.06462162512543486
21.76,0.06402887565565811
21.84,0.06349457184650503
21.92,0.06299092834865992
22.0,0.06249935064360844
22.080000000000002,0.062008852827856516
22.16,0.0615128235113913
22.240000000000002,0.06100504278936278
22.32,0.06047607161410831
22.400000000000002,0.059911059257191146
22.48,0.05928964270086637
22.56,0.05858803374393111
22.64,0.057782767759700454
22.72,0.056855109328836216
22.8,0.05579492449023993
22.88,0.054602997415030954
22.96,0.05329123738592987
23.04,0.05188083829233571
23.12,0.050399018431465686
23.2,0.0488753053782995
23.28,0.047338343036914546
23.36,0.04581390234221685
23.44,0.04432429281980456
23.52,0.04288887553912514
23.6,0.04152503799077546
23.68,0.04024891199218977
23.76,0.03907530404500653
23.84,0.0380166785362164
23.92,0.03708144669220027
24.0,0.03627212375502721
24.080000000000002,0.03558402458594275
24.16,0.03500504939176344
24.240000000000002,0.034516817351933335
24.32,0.034097038358251966
24.400000000000002,0.03372268630158271
24.48,0.03337334093260262
24.560000000000002,0.033034039743466616
24.64,0.03269711316429709
24.72,0.03236271175732504
24.8,0.03203800243294566
24.88,0.031735248633868236
24.96,0.031469156308100286
25.04,0.031253948943401444
25.12,0.031100636376159868
25.2,0.031014878163982018
25.28,0.03099572865113187
25.36,0.031035401782708277
25.44,0.031120025421810152
25.52,0.031231190077755187
25.6,0.031347965880505244
25.68,0.03144899682300095
25.76,0.03151430603791565
25.84,0.03152656164453547
25.92,0.031471731807212106
26.0,0.03133924673302573
26.080000000000002,0.03112192093847156
26.16,0.030815920841346153
26.240000000000002,0.030420975006950457
26.32,0.029940846732031002
26.400000000000002,0.029383888389419837
26.48,0.02876335530859307
26.560000000000002,0.028097137503311914
26.64,0.02740668981230157
26.72,0.026715170678298233
26.8,0.02604505999842464
26.88,0.025415725900041694
26.96,0.024841476667731496
27.04,0.024330540081902295
27.12,0.023885184615597348
27.2,0.02350290494167003
27.28,0.023178325977466538
27.36,0.022905312048028818
27.44,0.022678742832039526
27.52,0.022495532830818545
27.6,0.022354683791690234
27.68,0.0222564052538934
27.76,0.022200552854801964
27.84,0.02218477222000543
27.92,0.02220278163006623
28.0,0.0222431884889145
28.080000000000002,0.022289136627107478
28.16,0.022318948454550104
28.240000000000002,0.022307775438979733
28.32,0.022230112728883047
28.400000000000002,0.02206287932622904
28.48,0.021788632408733896
28.560000000000002,0.021398401862856464
28.64,0.02089363089471761
28.72,0.0202868123030487
28.8,0.019600614513918348
28.88,0.018865562474319957
28.96,0.018116616208508927
29.04,0.01738920586637588
29.12,0.016715380898308485
29.2,0.016120687526163295
29.28,0.015622215718688897
29.36,0.015228000187812372
29.44,0.014937684072357073
29.52,0.014744124264626672
29.6,0.014635483290623521
29.68,0.014597336930211246
29.76,0.014614421207929627
29.84,0.014671811586335756
29.92,0.014755518718571892
30.0,0.014852644403867292
30.080000000000002,0.014951327633716744
30.16,0.015040708737380858
30.240000000000002,0.015111063769279731
30.32,0.015154147875785558
30.400000000000002,0.015163679226013017
30.48,0.015135828464158514
30.560000000000002,0.015069565888594566
30.64,0.014966750977859215
30.72,0.014831904513361775
30.8,0.014671660545167753
30.88,0.014493942431622723
30.96,0.014306945192759902
31.04,0.014118042167070174
31.12,0.013932769407604233
31.2,0.01375406671298895
31.28,0.013581950195375465
31.36,0.01341373909612805
31.44,0.013244854774346443
31.52,0.013070071126793332
31.6,0.012884962894050035
31.68,0.012687218680754758
31.76,0.012477494571396599
31.84,0.012259589174651468
31.92,0.012039894985072753
32.0,0.011826271393128508
32.08,0.011626631643943465
32.160000000000004,0.011447594294381143
32.24,0.011293504577302695
32.32,0.01116600262185177
32.4,0.011064149880853453
32.480000000000004,0.010984977238976672
32.56,0.01092423236292095
32.64,0.010877099393065151
32.72,0.010838731323012555
32.8,0.010804541381464973
32.88,0.010770301760740536
32.96,0.010732159744142156
33.04,0.010686685149810363
33.12,0.010631015275158466
33.2,0.010563089940160626
33.28,0.010481903554924083
33.36,0.01038767115445964
33.44,0.01028182199931402
33.52,0.010166788419005632
33.6,0.010045624965258713
33.68,0.009921545845481657
33.76,0.009797487484093398
33.84,0.009675784032731071
33.92,0.009557998466037696
34.0,0.00944490115937193
34.08,0.009336551238106547
34.160000000000004,0.00923242423351196
34.24,0.009131541431636721
34.32,0.009032581201603662
34.4,0.008933976875775136
34.480000000000004,0.008834019044938694
34.56,0.00873097903453324
34.64,0.008623258372397972
34.72,0.008509553688043745
34.800000000000004,0.008389015079666329
34.88,0.00826137286605741
34.96,0.008127013054015158
35.04,0.007986992833648886
35.12,0.00784299961099945
35.2,0.007697266525643009
35.28,0.007552461573251336
35.36,0.007411565647110067
35.44,0.007277747957525504
35.52,0.007154237632640749
35.6,0.007044181040539349
35.68,0.006950469103001412
35.76,0.006875520770926492
35.84,0.006821019534280612
35.92,0.00678761837250275
36.0,0.006774650846699845
36.08,0.006779905492326891
36.160000000000004,0.006799529874417832
36.24,0.0068281238240804915
36.32,0.00685905661798804
36.4,0.006885003488045582
36.480000000000004,0.006898650921611528
36.56,0.006893478604129657
36.64,0.006864499348747762
36.72,0.006808834736789894
36.800000000000004,0.006726026128816309
36.88,0.006618024904753699
36.96,0.006488863544973183
37.04,0.006344068167285407
37.12,0.006189920251030219
37.2,0.006032699715460414
37.28,0.005878037650403229
37.36,0.0057304759963610384
37.44,0.005593281133175208
37.52,0.005468501032840008
37.6,0.005357205016410763
37.68,0.005259812664757126
37.76,0.005176410619203768
37.84,0.005106973288675332
37.92,0.005051440368550989
38.0,0.00500965059502682
38.08,0.004981175086874996
38.160000000000004,0.004965123305854557
38.24,0.004960002002119383
38.32,0.004963690505902514
38.4,0.004973559614617879
38.480000000000004,0.004986717455318806
38.56,0.005000328075907847
38.64,0.005011928950353884
38.72,0.005019677381571922
38.800000000000004,0.005022479866061944
38.88,0.005019992878959852
38.96,0.005012515682014896
39.04,0.00500081560033843
39.12,0.004985929851054056
39.2,0.004968978330208177
39.28,0.004951006157709265
39.36,0.004932861245373241
39.44,0.0049151057962208596
39.52,0.004897961996684318
39.6,0.00488129775017835
39.68,0.004864662794134172
39.76,0.004847384351224575
39.84,0.004828722663983646
39.92,0.004808071799597215
40.0,0.004785174276569228
40.08,0.004760305055914967
40.160000000000004,0.0047343765380276626
40.24,0.004708924549013751
40.32,0.004685955702202179
40.4,0.00466766520283963
40.480000000000004,0.004656064544669939
40.56,0.004652582951662158
40.64,0.004657718238973807
40.72,0.004670808395050648
40.800000000000004,0.004689975079920977
40.88,0.004712258785758488
40.96,0.004733929690571683
41.04,0.004750926096450765
41.12,0.0047593504196819045
41.2,0.004755944950740913
41.28,0.004738476634665199
41.36,0.004705979370844904
41.44,0.004658828931793711
41.52,0.004598653680281607
41.6,0.0045281083254789314
41.68,0.004450554040570619
41.76,0.004369694631807847
41.84,0.004289215676084898
41.92,0.0042124640232278545
42.0,0.004142192132798915
42.08,0.0040803787205459996
42.160000000000004,0.004028126688404806
42.24,0.003985632665627712
42.32,0.0039522197904564085
42.4,0.003926425640628246
42.480000000000004,0.0039061388141669977
42.56,0.0038887786951643556
42.64,0.0038715118757714877
42.72,0.0038514948848318055
42.800000000000004,0.0038261268782363578
42.88,0.003793289595742117
42.96,0.003751547742043438
43.04,0.003700283406993482
43.12,0.0036397444693635943
43.2,0.003570998632572522
43.28,0.0034957995584486033
43.36,0.003416386121609413
43.44,0.0033352466288006375
43.52,0.0032548843397981874
43.6,0.0031776177057113875
43.68,0.003105439028146268
43.76,0.0030399409010242566
43.84,0.0029823041182948373
43.92,0.0029333275194666844
44.0,0.002893472981386801
44.08,0.0028628996301415573
44.160000000000004,0.002841470365401019
44.24,0.002828728482005558
44.32,0.0028238580390428474
44.4,0.0028256534491021175
44.480000000000004,0.00283252733618798
44.56,0.002842579334105819
44.64,0.002853733601723349
44.72,0.0028639335443051556
44.800000000000004,0.0028713640498978076
44.88,0.002874659682849329
44.96,0.0028730552054264964
45.04,0.002866443462101005
45.12,0.0028553233453272684
45.2,0.002840643387060802
45.28,0.002823569334746926
45.36,0.0028052215652150762
45.44,0.0027864360722486357
45.52,0.0027675987952306604
45.6,0.0027485877223693
45.68,0.0027288337810016383
45.76,0.0027074854356348103
45.84,0.0026836393991571447
45.92,0.002656586351513293
46.0,0.0026260191412118966
46.08,0.002592161477838542
46.160000000000004,0.0025557943150025797
46.24,0.0025181795897025357
46.32,0.002480900966332269
46.4,0.002445654361414272
46.480000000000004,0.0024140254991306467
46.56,0.0023872885175908742
46.64,0.002366251573731118
46.72,0.002351165807978478
46.800000000000004,0.0023417053121398135
46.88,0.002337018576313299
46.96,0.0023358454414582758
47.04,0.0023366865128582152
47.12,0.0023380037463408172
47.2,0.002338422673609144
47.28,0.0023369013989799244
47.36,0.002332832703889065
47.44,0.0023260559244810824
47.52,0.0023167745196971817
47.6,0.0023053995415003165
47.68,0.002292361577661429
47.76,0.002277946197822966
47.84,0.002262204550870315
47.92,0.0022449703500789474
48.0,0.002225981856696889
48.08,0.002205072437984658
48.160000000000004,0.0021823675075417423
48.24,0.002158418541187458
48.32,0.0021342199164420955
48.4,0.0021110876470229606
48.480000000000004,0.0020904205212755878
48.56,0.0020734007382744446
48.64,0.0020607114805066933
48.72,0.0020523468641264926
48.800000000000004,0.0020475662940303875
48.88,0.0020450077293294143
48.96,0.002042933818991871
49.04,0.002039552627068758
49.120000000000005,0.0020333390189740397
49.2,0.002023286846057487
49.28,0.0020090433176721267
49.36,0.0019909083592581367
49.44,0.0019697141385903796
49.52,0.0019466247733792783
49.6,0.0019229080520199483
49.68,0.0018997286798797496
49.76,0.001877999080508539
49.84,0.0018583046656261114
49.92,0.0018409016627033217
50.0,0.0018257714747875117
50.08,0.001812708120439259
50.160000000000004,0.0018014142804493108
50.24,0.0017915852617541965
50.32,0.0017829668956877327
50.4,0.0017753814430548735
50.480000000000004,0.0017687237130487206
50.56,0.0017629365402891707
50.64,0.001757979064865075
50.72,0.0017538016258900058
50.800000000000004,0.0017503370341388769
50.88,0.0017475105096195417
50.96,0.001745262149069511
51.04,0.0017435696948738845
51.120000000000005,0.0017424583168227335
51.2,0.0017419889123807854
51.28,0.0017422254070547337
51.36,0.001743191040249805
51.44,0.0017448295193811005
51.52,0.001746986443459178
51.6,0.0017494194489441756
51.68,0.0017518348597346696
51.76,0.0017539386636572334
51.84,0.0017554845755994412
51.92,0.0017563038684615014
52.0,0.0017563096262329485
52.08,0.0017554785846403582
52.160000000000004,0.001753822253772689
52.24,0.0017513620305996923
52.32,0.0017481194688977186
52.4,0.0017441246028543356
52.480000000000004,0.0017394360051794112
52.56,0.0017341601354662738
52.64,0.0017284570386815433
52.72,0.00172252462209763
52.800000000000004,0.0017165622271719328
52.88,0.0017107224279145272
52.96,0.0017050646687128204
53.04,0.00169952389289494
53.120000000000005,0.0016939022678739372
53.2,0.0016878847854267295
53.28,0.0016810728563960552
53.36,0.0016730263885457886
53.44,0.0016633051468900118
53.52,0.001651503723177814
53.6,0.0016372792891105594
53.68,0.0016203752588007112
53.76,0.0016006453727510734
53.84,0.0015780810039760966
53.92,0.0015528404086024346
54.0,0.0015252738857392343
54.08,0.0014959354000413077
54.160000000000004,0.0014655708064479234
54.24,0.0014350760944929395
54.32,0.0014054255044988425
54.4,0.0013775773179597079
54.480000000000004,0.0013523723164790113
54.56,0.0013304441123732406
54.64,0.0013121602695358539
54.72,0.0012976080199823337
54.800000000000004,0.0012866294055813787
54.88,0.0012788998766657175
54.96,0.001274034366696786
55.04,0.0012716981497093091
