Frequency,PSD
6.0,0.5529342000975134
6.08,0.555595158921348
6.16,0.5600975568111756
6.24,0.5651697517065369
6.32,0.5696592890337563
6.4,0.5730599479107236
6.48,0.5757783846612881
6.5600000000000005,0.5790512725529681
6.640000000000001,0.5845780694270631
6.72,0.5940403553077344
6.8,0.6086933739603845
6.88,0.6291485260122719
6.96,0.6553664179520062
7.04,0.6868036143782537
7.12,0.7226305728306366
7.2,0.7619542357377853
7.28,0.8040055018016155
7.36,0.8482638751162314
7.44,0.8944876795435397
7.5200000000000005,0.9426188192976297
7.6000000000000005,0.9925587104983153
7.68,1.043869474132735
7.76,1.0955168154495296
7.84,1.1457976042023186
7.92,1.1925549036307768
8.0,1.2336774905199588
8.08,1.2677499101270184
8.16,1.294625209141844
8.24,1.315688112461745
8.32,1.333673429310811
8.4,1.3520640181433774
8.48,1.3742436289526192
8.56,1.4026570657864943
8.64,1.4382083407399677
8.72,1.4800313623333394
8.8,1.5256504620118547
8.88,1.5714567576325125
8.96,1.6133781016713409
9.040000000000001,1.6476046328525664
9.120000000000001,1.6712320547783515
9.200000000000001,1.6826972305200094
9.28,1.6819158242144725
9.36,1.6700974243802194
9.44,1.6492992338445904
9.52,1.621855210826408
9.6,1.5898499326219537
9.68,1.5547778111584896
9.76,1.5174482525908002
9.84,1.4781003437210045
9.92,1.4366212240843126
10.0,1.3927535908988034
10.08,1.3462317297243087
10.16,1.296866823069578
10.24,1.244655150398015
10.32,1.1899651060345249
10.4,1.1337745066593734
10.48,1.0778328637536614
10.56,1.0245880133593404
10.64,0.9767860864954854
10.72,0.9368063644475944
10.8,0.9059476489566048
10.88,0.8839482721174243
10.96,0.8689514224504915
11.040000000000001,0.8579506923878526
11.120000000000001,0.8475564060609962
11.200000000000001,0.83480693067404
11.28,0.8177596862881218
11.36,0.7957142489808311
11.44,0.7690759769092526
11.52,0.7389885615055705
11.6,0.706906036754418
11.68,0.6742424198152912
11.76,0.6421650308093817
11.84,0.6115265412454665
11.92,0.5828879918475627
12.0,0.5565768190204661
12.08,0.5327405579386891
12.16,0.511381754291681
12.24,0.49237828584018484
12.32,0.4754992941798726
12.4,0.46042295259214494
12.48,0.4467565076886529
12.56,0.43405829003616975
12.64,0.42186584356109064
12.72,0.409737689338057
12.8,0.3973119254399686
12.88,0.38437288837380057
12.96,0.37090539466535016
13.040000000000001,0.3571144174776445
13.120000000000001,0.3433995589138399
13.200000000000001,0.3302914340370978
13.280000000000001,0.31836913601000116
13.36,0.30817682329830276
13.44,0.3001463209660888
13.52,0.29452292649885187
13.6,0.2912938939043213
13.68,0.29013382410109656
13.76,0.2903969584184879
13.84,0.2911871278658025
13.92,0.29151325944719053
14.0,0.2904990017716205
14.08,0.28758010998106276
14.16,0.28261538460872426
14.24,0.2758657326479478
14.32,0.26784997444398645
14.4,0.259138352476753
14.48,0.25016816944121445
14.56,0.2411493784148351
14.64,0.23208216058777403
14.72,0.2228590561283493
14.8,0.21339535250041142
14.88,0.2037327615324661
14.96,0.1940849317844326
15.040000000000001,0.18482167472891037
15.120000000000001,0.1764074636375734
15.200000000000001,0.16931485878591876
15.280000000000001,0.16393054353592168
15.36,0.16046852077688784
15.44,0.15890524478052084
15.52,0.15895251106848193
15.6,0.1600806321562261
15.68,0.16159401384465436
15.76,0.16274605018110566
15.84,0.1628666414240421
15.92,0.16147030132362344
16.0,0.158318925550828
16.080000000000002,0.15342863195381073
16.16,0.1470280965004536
16.240000000000002,0.1394889022139774
16.32,0.13125179463128106
16.4,0.1227666333503425
16.48,0.11445288762689466
16.56,0.10667775601131453
16.64,0.0997443398269571
16.72,0.0938830105625402
16.8,0.08924268827470053
16.88,0.08588238229305381
16.96,0.08376571807833441
17.04,0.08276240247452851
17.12,0.08266085744503632
17.2,0.08319489404758414
17.28,0.08408336088403809
17.36,0.08507564047015576
17.44,0.08599043441693821
17.52,0.08673433452928928
17.6,0.08729245000300034
17.68,0.08769424912016224
17.76,0.0879686237080407
17.84,0.08810715226344651
17.92,0.0880506699396285
18.0,0.08770336938704756
18.080000000000002,0.08696630793381496
18.16,0.08577445354521936
18.240000000000002,0.08412152751342862
18.32,0.08206389254818214
18.400000000000002,0.07970439121759638
18.48,0.07716463535859171
18.56,0.07455700732322368
18.64,0.07196560838248496
18.72,0.06944057712191906
18.8,0.06700495620406782
18.88,0.0646692470321324
18.96,0.06244677506929867
19.04,0.06036335010697228
19.12,0.05845742643855402
19.2,0.05677131068717349
19.28,0.05533825619549762
19.36,0.05417241486950796
19.44,0.05326721300185462
19.52,0.052603179926298566
19.6,0.05216084348199362
19.68,0.051930993130603495
19.76,0.051915395937783076
19.84,0.052115724012769184
19.92,0.05251464840573838
20.0,0.05305755963094372
20.080000000000002,0.053643908142964464
20.16,0.05413355716067287
20.240000000000002,0.05436768789724171
20.32,0.054198441877090886
20.400000000000002,0.05351876999114681
20.48,0.052284530539850264
20.56,0.050523932378273254
20.64,0.048333393839346414
20.72,0.045862274603180514
20.8,0.043290806752809406
20.88,0.04080572908339683
20.96,0.03857710601820974
21.04,0.036738454082398196
21.12,0.03537141204454776
21.2,0.034496103012736014
21.28,0.03406871730702503
21.36,0.03398792065509976
21.44,0.03411076395213714
21.52,0.03427671959160601
21.6,0.0343359283003621
21.68,0.034175812666248494
21.76,0.03373989834085675
21.84,0.03303434328788593
21.92,0.0321208375418142
22.0,0.031098119900540254
22.080000000000002,0.03007716549784465
22.16,0.029156297774294265
22.240000000000002,0.02840186642621857
22.32,0.02783811401782937
22.400000000000002,0.02744721343433672
22.48,0.027178045048769174
22.56,0.026960709822024524
22.64,0.02672323773776254
22.72,0.026407235971385043
22.8,0.02597990777634384
22.88,0.025440618973388788
22.96,0.024820915615607862
23.04,0.024177755591506218
23.12,0.02358087215191537
23.2,0.02309657564140533
23.28,0.022771545626263705
23.36,0.02262071179090347
23.44,0.022622708471917025
23.52,0.022724536105620148
23.6,0.022854419496578498
23.68,0.022939297068785783
23.76,0.02292189134438972
23.84,0.022772541434892966
23.92,0.022492878397660385
24.0,0.022111230088778085
24.080000000000002,0.021672214864046378
24.16,0.02122435832711515
24.240000000000002,0.020809393957076747
24.32,0.020455537533447657
24.400000000000002,0.020175231373407255
24.48,0.019966406963521404
24.560000000000002,0.01981565462431919
24.64,0.01970183851883857
24.72,0.019599360101450768
24.8,0.01948102327844168
24.88,0.019320903366278314
24.96,0.019097569693031592
25.04,0.018797530088350393
25.12,0.018418174720954552
25.2,0.017969205579050036
25.28,0.01747180028712395
25.36,0.016955490396659726
25.44,0.016453534684188916
25.52,0.015997973768311052
25.6,0.01561536191424636
25.68,0.015323599698697598
25.76,0.015129807714897761
25.84,0.015029139038168136
25.92,0.015004767190561997
26.0,0.0150295786390282
26.080000000000002,0.015069914327828643
26.16,0.015091001939752761
26.240000000000002,0.015062919750285822
26.32,0.014965592805980933
26.400000000000002,0.014791688580305603
26.48,0.014547091709289828
26.560000000000002,0.01424935491654306
26.64,0.013924765868329124
26.72,0.013604494173080914
26.8,0.013320072297143163
26.88,0.013098554209649983
26.96,0.012958070568373496
27.04,0.012904811130482797
27.12,0.012932337651326727
27.2,0.013023484149248617
27.28,0.013154235773233543
27.36,0.01329836081077447
27.44,0.013431512245434716
27.52,0.013533973536668489
27.6,0.013591872011128086
27.68,0.013597164285868563
27.76,0.01354685270806048
27.84,0.013441809331940552
27.92,0.013285464659786307
28.0,0.013082587333643963
28.080000000000002,0.012838406783197967
28.16,0.0125582940484763
28.240000000000002,0.012248044871473004
28.32,0.01191455833249147
28.400000000000002,0.011566516126674009
28.48,0.011214659093824113
28.560000000000002,0.01087143132587863
28.64,0.010550009404704151
28.72,0.0102629211388486
28.8,0.010020520342786624
28.88,0.009829556910817872
28.96,0.009692047054852776
29.04,0.009604653086344594
29.12,0.009558792724624595
29.2,0.009541635437773815
29.28,0.009537959033297249
29.36,0.009532571656964903
29.44,0.009512768591920955
29.52,0.009470217165383403
29.6,0.00940180758838903
29.68,0.009309327620957958
29.76,0.009198183987366925
29.84,0.009075653873502926
29.92,0.00894921131015086
30.0,0.008825337495520684
30.080000000000002,0.008708975358337992
30.16,0.008603539315985004
30.240000000000002,0.008511225415307919
30.32,0.008433317195909356
30.400000000000002,0.008370242657981392
30.48,0.008321287008975428
30.560000000000002,0.008284073022021277
30.64,0.008254125320462102
30.72,0.008224937350931345
30.8,0.008188857222664879
30.88,0.008138773652559052
30.96,0.008070133009452179
31.04,0.00798249659678017
31.12,0.007879892531651052
31.2,0.0077696855152636374
31.28,0.0076603672287823745
31.36,0.007559174824453764
31.44,0.007470463307380222
31.52,0.0073952766644347695
31.6,0.007331897057277194
31.68,0.007276735123558226
31.76,0.007225006541000469
31.84,0.007171108231690296
31.92,0.007109073404116912
32.0,0.007033570564615068
32.08,0.006941529436754415
32.160000000000004,0.006833892188138369
32.24,0.006716627872625837
32.32,0.0066002929482213875
32.4,0.006498013588681685
32.480000000000004,0.006422460708549112
32.56,0.00638279676758244
32.64,0.00638251226430995
32.72,0.0064186484336529025
32.8,0.006482403108644231
32.88,0.006560784856463167
32.96,0.006638884101092316
33.04,0.006702369035842214
33.12,0.006739847172635339
33.2,0.006744706867059369
33.28,0.006716037624886771
33.36,0.0066583439143829675
33.44,0.006580066087585284
33.52,0.006491316259438292
33.6,0.006401534167195783
33.68,0.006317790191432315
33.76,0.0062441701508393396
33.84,0.006182208003124631
33.92,0.006131928499606264
34.0,0.006092916852396468
34.08,0.006064978232264687
34.160000000000004,0.006048249262761353
34.24,0.006042878563191643
34.32,0.006048484164944871
34.4,0.006063547582376058
34.480000000000004,0.006084837684583287
34.56,0.006106970506089708
34.64,0.006122295235186913
34.72,0.0061213493938831205
34.800000000000004,0.006094043109175806
34.88,0.006031497910026601
34.96,0.005928173653006115
35.04,0.0057837131564636105
35.12,0.0056039275075023005
35.2,0.005400553821087478
35.28,0.005189767335982812
35.36,0.00498979452444861
35.44,0.004818225111275352
35.52,0.004689671703989155
35.6,0.00461426005988944
35.68,0.004597116050432327
35.76,0.00463867542472679
35.84,0.004735419878664752
35.92,0.00488062270156601
36.0,0.0050648528048950325
36.08,0.0052762295508037215
36.160000000000004,0.0055006119444713205
36.24,0.005721971721656056
36.32,0.005923156776416591
36.4,0.006087160836232273
36.480000000000004,0.006198909495581989
36.56,0.006247425505379006
36.64,0.0062280167853959595
36.72,0.006143890155588679
36.800000000000004,0.006006487438579124
36.88,0.0058340352937061475
36.96,0.005648326481421741
37.04,0.005470424186522793
37.12,0.005316478549692708
37.2,0.005194891832473729
37.28,0.0051056152787587634
37.36,0.005041614050275817
37.44,0.004991837280666113
37.52,0.004944659669484621
37.6,0.004890806439001977
37.68,0.004825123784443753
37.76,0.004747006830337999
37.84,0.004659673467977125
37.92,0.004568700495088006
38.0,0.004480324014363265
38.08,0.004399975879371129
38.160000000000004,0.004331392770411025
38.24,0.004276405284379474
38.32,0.004235246358370777
38.4,0.004207023492593545
38.480000000000004,0.0041899944377430075
38.56,0.0041815027352959545
38.64,0.004177759008723839
38.72,0.004173887737482303
38.800000000000004,0.00416461595069396
38.88,0.0041456370177075505
38.96,0.004115214800562219
39.04,0.004075283018600514
39.12,0.004031360513764872
39.2,0.003991059890920633
39.28,0.003961605120359705
39.36,0.0039472726224386865
39.44,0.003947775511528701
39.52,0.0039582675321996495
39.6,0.003971014613402068
39.68,0.003978149450004855
39.76,0.003974542562300164
39.84,0.003959812150661464
39.92,0.003938818486359389
40.0,0.003920501799817839
40.08,0.003915443244051019
40.160000000000004,0.0039328945600707295
40.24,0.003978132548032241
40.32,0.004050838043611487
40.4,0.004144860407487067
40.480000000000004,0.004249350430615537
40.56,0.004350951220264056
40.64,0.0044365668852838405
40.72,0.004496139666621331
40.800000000000004,0.0045248118825214545
40.88,0.004523863826699716
40.96,0.004500010353327591
41.04,0.004463076800924289
41.12,0.004422665393321822
41.2,0.004384900035325266
41.28,0.004350410262428158
41.36,0.00431427766952484
41.44,0.004267900339058098
41.52,0.004202005229524985
41.6,0.00410969428514895
41.68,0.003988557793986665
41.76,0.0038413770839307543
41.84,0.003675484636489134
41.92,0.003501218212368371
42.0,0.003330017143640641
42.08,0.003172625921768718
42.160000000000004,0.0030377079929637786
42.24,0.0029310170763024957
42.32,0.0028551540399802565
42.4,0.0028098498640926435
42.480000000000004,0.002792650905740911
42.56,0.0027998387397819443
42.64,0.0028273899768133126
42.72,0.0028717675484906877
42.800000000000004,0.0029303422117759464
42.88,0.003001299863173027
42.96,0.0030830252559921074
43.04,0.0031731530487347746
43.12,0.0032676645871152106
43.2,0.003360469956307415
43.28,0.0034437765612605527
43.36,0.003509240764918301
43.44,0.003549565071941903
43.52,0.003560005165981284
43.6,0.0035392842712500105
43.68,0.003489651625446983
43.76,0.0034161463557174287
43.84,0.003325394446999732
43.92,0.0032243780725632566
44.0,0.0031195527568232163
44.08,0.00301649523168232
44.160000000000004,0.002920029354654312
44.24,0.0028345923269049427
44.32,0.0027645367402505654
44.4,0.0027141310796987336
44.480000000000004,0.002687177403727951
44.56,0.002686329865205705
44.64,0.0027123035886582455
44.72,0.0027631917741249715
44.800000000000004,0.0028340875663039567
44.88,0.0029171694935934247
44.96,0.003002354833533641
45.04,0.0030785235548518334
45.12,0.003135152466193984
45.2,0.0031640219902762503
45.28,0.0031605658671604846
45.36,0.003124509848993701
45.44,0.0030596799611723588
45.52,0.002973139860871347
45.6,0.002873991106003746
45.68,0.0027721596909611535
45.76,0.0026773408292973897
45.84,0.0025981106329791333
45.92,0.002541151794084491
46.0,0.002510598158857423
46.08,0.0025076015983478174
46.160000000000004,0.0025302629262212266
46.24,0.0025740054642666137
46.32,0.0026323472624322376
46.4,0.002697924994049727
46.480000000000004,0.002763585951587504
46.56,0.002823378728497288
46.64,0.0028732913254972577
46.72,0.0029115879144669
46.800000000000004,0.0029386169811690312
46.88,0.0029560607295052704
46.96,0.0029657823663063135
47.04,0.0029686366595409706
47.12,0.0029637178112299108
47.2,0.002948428807965399
47.28,0.002919467247032917
47.36,0.0028744463694141496
47.44,0.002813576420343444
47.52,0.0027407576343108087
47.6,0.002663617193159433
47.68,0.002592380368657936
47.76,0.002537855540256616
47.84,0.0025090919746243237
47.92,0.002511355189781274
48.0,0.002544952094637957
48.08,0.0026051836367898228
48.160000000000004,0.002683393143781635
48.24,0.0027688002883410716
48.32,0.002850630057450671
48.4,0.002920000778970427
48.480000000000004,0.0029711314305570086
48.56,0.003001641392212373
48.64,0.003011991221068891
48.72,0.003004372467263275
48.800000000000004,0.0029815108125120886
48.88,0.002945833224377876
48.96,0.002899256229948362
49.04,0.0028435474443789036
49.120000000000005,0.002780929134258408
49.2,0.002714471455873505
49.28,0.0026479367666380413
49.36,0.0025850394294434434
49.44,0.00252842541539431
49.52,0.0024788695331692465
49.6,0.0024351227722377126
49.68,0.0023945440132897185
49.76,0.0023542739321169223
49.84,0.0023124521486827046
49.92,0.002268970600781909
50.0,0.0022254868474184085
50.08,0.002184755912841372
50.160000000000004,0.0021496054241409122
50.24,0.002121964606338119
50.32,0.002102262567709543
50.4,0.002089321577189076
50.480000000000004,0.0020806914856395277
50.56,0.0020732657649914776
50.64,0.002063994701648336
50.72,0.0020505398288457946
50.800000000000004,0.002031764734968071
50.88,0.002008010212356127
50.96,0.0019811436155263255
51.04,0.001954395125999611
51.120000000000005,0.0019319974375388987
51.2,0.0019186427265882947
51.28,0.0019187811383533301
51.36,0.001935820187167342
51.44,0.0019713372421135966
51.52,0.0020244639088425748
51.6,0.002091614929767352
51.68,0.0021666987160304588
51.76,0.0022418607013943367
51.84,0.002308688073458798
51.92,0.0023596722918703406
52.0,0.0023896221767126004
52.08,0.0023966850621081302
52.160000000000004,0.002382692415452397
52.24,0.0023526969314785658
52.32,0.002313775976148045
52.4,0.002273383899199701
52.480000000000004,0.0022376786138255354
52.56,0.0022102725295653804
52.64,0.00219174161106242
52.72,0.0021799942510898618
52.800000000000004,0.002171330404211122
52.88,0.002161814963453426
52.96,0.0021485301480349966
53.04,0.0021303738257475585
53.120000000000005,0.002108269733931802
53.2,0.0020848478422970645
53.28,0.00206376038697882
53.36,0.0020488121378934177
53.44,0.0020430534275670334
53.52,0.0020479718128358845
53.6,0.0020629404835307164
53.68,0.002085100027260185
53.76,0.002109803667471404
53.84,0.0021316141396957597
53.92,0.0021456372805812992
54.0,0.002148803484481169
54.08,0.0021406629084565155
54.160000000000004,0.0021233943925326503
54.24,0.0021010069308263334
54.32,0.002078023030684011
54.4,0.002058134278645708
54.480000000000004,0.002043313210912791
54.56,0.0020336524545107064
54.64,0.002027884591406748
54.72,0.002024266319566716
54.800000000000004,0.002021408555053937
54.88,0.002018727725283582
54.96,0.0020164128918570686
55.04,0.0020150311265876644
