Frequency,PSD
6.0,0.4066891674140974
6.08,0.40460688216354057
6.16,0.4007796629323567
6.24,0.3958466983212339
6.32,0.39068037979789716
6.4,0.3862893387082597
6.48,0.3837005404376856
6.5600000000000005,0.3838309143142305
6.640000000000001,0.38736261903171676
6.72,0.3946394627207087
6.8,0.4056035648466643
6.88,0.41978898471453274
6.96,0.4363813074545073
7.04,0.45433939085747777
7.12,0.47256021357842404
7.2,0.4900543797125927
7.28,0.5060931341879858
7.36,0.5202913293514442
7.44,0.532605539319046
7.5200000000000005,0.5432496285495771
7.6000000000000005,0.5525550125419348
7.68,0.5608208455189373
7.76,0.568202629926583
7.84,0.5746733792065137
7.92,0.5800641491486288
8.0,0.5841617968586568
8.08,0.5868241667738566
8.16,0.5880742004974273
8.24,0.5881524173341555
8.32,0.5875304191713691
8.4,0.5869025384324003
8.48,0.5871702969783684
8.56,0.5894177720056745
8.64,0.5948575507918108
8.72,0.6047211035245575
8.8,0.6200818187552428
8.88,0.6416296181200996
8.96,0.6694489446762562
9.040000000000001,0.7028701826028108
9.120000000000001,0.7404572653592969
9.200000000000001,0.7801615987485102
9.28,0.8196254151888835
9.36,0.8565726142888799
9.44,0.8891968396806507
9.52,0.9164532866251687
9.6,0.9381828736162243
9.68,0.9550387985453757
9.76,0.9682359684631483
9.84,0.9791911967253358
9.92,0.9891538890274307
10.0,0.998932488187134
10.08,1.0087957434147785
10.16,1.0185734816842749
10.24,1.0279134709247075
10.32,1.036592081396444
10.4,1.0447506099687773
10.48,1.0529509174590777
10.56,1.062010478720964
10.64,1.072665802678201
10.72,1.0851898271332707
10.8,1.099120022457802
10.88,1.1132224385333291
10.96,1.1257311828742422
11.040000000000001,1.1347954010471322
11.120000000000001,1.13898100445067
11.200000000000001,1.1376490387393225
11.28,1.1310790367833834
11.36,1.1203049614094331
11.44,1.1067409132318948
11.52,1.0917470057103913
11.6,1.076293506714283
11.68,1.0608247966882742
11.76,1.0453335914615278
11.84,1.0295727541213586
11.92,1.013291638253229
12.0,0.996398068793657
12.08,0.9790016431698055
12.16,0.9613583098112695
12.24,0.9437788344384522
12.32,0.9265674120901259
12.4,0.9100245233383051
12.48,0.8945004481630792
12.56,0.8804488159155164
12.64,0.8684221436720136
12.72,0.8589765442645396
12.8,0.8524974196418301
12.88,0.8489999813539727
12.96,0.84797819995795
13.040000000000001,0.8483649252256298
13.120000000000001,0.848630117911447
13.200000000000001,0.8469991429132933
13.280000000000001,0.8417368359900473
13.36,0.8314279605779967
13.44,0.8151932029400835
13.52,0.7928049588587174
13.6,0.7646966002307305
13.68,0.7318813380553181
13.76,0.6958067530358067
13.84,0.6581704497496523
13.92,0.6207178070124038
14.0,0.5850409445221858
14.08,0.5524007659190869
14.16,0.523597716679783
14.24,0.49891551906575266
14.32,0.47815147262595326
14.4,0.46072815182055205
14.48,0.445860848898157
14.56,0.4327409612263394
14.64,0.42069317713201726
14.72,0.40927415887570806
14.8,0.3982982386439783
14.88,0.38779520384496663
14.96,0.3779210699022962
15.040000000000001,0.36885153910342094
15.120000000000001,0.3606885464327948
15.200000000000001,0.35340347444697895
15.280000000000001,0.3468282222288739
15.36,0.34069063290205953
15.44,0.3346780763493226
15.52,0.3285062439947973
15.6,0.3219714993889649
15.68,0.3149734724970709
15.76,0.3075063350781825
15.84,0.2996277214462422
15.92,0.2914200356143504
16.0,0.28295875863512077
16.080000000000002,0.27429749846840074
16.16,0.2654723500106925
16.240000000000002,0.2565211965666831
16.32,0.24750880380416979
16.4,0.23854700897610867
16.48,0.22980120505173524
16.56,0.22147896953177645
16.64,0.2138025389753902
16.72,0.20697186074149163
16.8,0.20112744410582195
16.88,0.19632156319579971
16.96,0.19250330108146377
17.04,0.18951914113009852
17.12,0.18712789862152102
17.2,0.18502738767954352
17.28,0.18288985494364052
17.36,0.18040285332077943
17.44,0.1773111950156583
17.52,0.1734541560040766
17.6,0.16879124522363126
17.68,0.16341071431493437
17.76,0.15751793190479316
17.84,0.15140503075282016
17.92,0.14540732976704177
18.0,0.1398544569433907
18.080000000000002,0.13502421715454646
18.16,0.13110553964748523
18.240000000000002,0.12817449919856835
18.32,0.12618554342258692
18.400000000000002,0.12497901918791397
18.48,0.12430530317351708
18.56,0.12386430160216985
18.64,0.1233561620576071
18.72,0.12253512937878364
18.8,0.12125508530113832
18.88,0.11949447719993106
18.96,0.11735160926495317
19.04,0.11500869006097283
19.12,0.11267271277339913
19.2,0.11050979542161551
19.28,0.10859340909159
19.36,0.10688375607736952
19.44,0.10524583677222346
19.52,0.10350065305434336
19.6,0.10149237502589871
19.68,0.09914864882536616
19.76,0.09651376359777139
19.84,0.09374408075690385
19.92,0.09106812116821676
20.0,0.08872506963711888
20.080000000000002,0.08690125357142833
20.16,0.0856829584196252
20.240000000000002,0.0850371207899214
20.32,0.08482218572636945
20.400000000000002,0.08482315840567287
20.48,0.08479990021881849
20.56,0.08453656462484813
20.64,0.08388189127336883
20.72,0.08277347293908528
20.8,0.0812428993204531
20.88,0.0794022430673083
20.96,0.07741547888980842
21.04,0.07546096854005518
21.12,0.07369277728330632
21.2,0.07220885535524302
21.28,0.07103270480661616
21.36,0.07011216455411613
21.44,0.06933501040874258
21.52,0.06855717325141382
21.6,0.06763656018742328
21.68,0.06646446029052301
21.76,0.06498755758505728
21.84,0.06321632562289328
21.92,0.06121924233593322
22.0,0.05910579306679382
22.080000000000002,0.057003623545899586
22.16,0.05503583015739673
22.240000000000002,0.05330320098826568
22.32,0.05187384382312279
22.400000000000002,0.05078004163800189
22.48,0.05002032020768704
22.56,0.04956413054771103
22.64,0.049357173600958495
22.72,0.04932666880077036
22.8,0.04938705809028641
22.88,0.04944716655712167
22.96,0.04941949778465394
23.04,0.04923130592369597
23.12,0.04883581719953402
23.2,0.04822102834396164
23.28,0.04741334584000403
23.36,0.04647414003389544
23.44,0.04548891341741524
23.52,0.04455075116639014
23.6,0.04374141352389602
23.68,0.04311430085318534
23.76,0.042683295595564
23.84,0.042420215669377856
23.92,0.0422616272573908
24.0,0.04212353495985325
24.080000000000002,0.041920504172143554
24.16,0.04158455123308841
24.240000000000002,0.04107904025101694
24.32,0.04040402600974943
24.400000000000002,0.03959181322653278
24.48,0.03869437849510289
24.560000000000002,0.037766813760016824
24.64,0.036852169622236745
24.72,0.035972460348830886
24.8,0.035128288198385045
24.88,0.034306400898470424
24.96,0.033491729956489726
25.04,0.03267912701599909
25.12,0.03188055608996952
25.2,0.03112555473044898
25.28,0.03045539758548222
25.36,0.029913492768843968
25.44,0.029535368010678728
25.52,0.02934104091430603
25.6,0.02933110611951486
25.68,0.0294863208621909
25.76,0.02976954774371479
25.84,0.03012891370883577
25.92,0.030501732372436023
26.0,0.03081951533187883
26.080000000000002,0.03101465568164565
26.16,0.031028828648769543
26.240000000000002,0.030822046655061833
26.32,0.030380246005601536
26.400000000000002,0.029718944639418616
26.48,0.028881251422406048
26.560000000000002,0.02793014840179773
26.64,0.0269368555997889
26.72,0.0259684073509143
26.8,0.02507773860993639
26.88,0.024298532858590953
26.96,0.023645292275234583
27.04,0.023117328669202686
27.12,0.022704345198897503
27.2,0.022391308240103137
27.28,0.022161230201571742
27.36,0.021995770615977833
27.44,0.021874606913386937
27.52,0.021774921678307402
27.6,0.02167204501519717
27.68,0.021541542053389647
27.76,0.02136225562297673
27.84,0.021119350672267244
27.92,0.02080640753692018
28.0,0.020426000365645385
28.080000000000002,0.019988754165905506
28.16,0.019511350844490023
28.240000000000002,0.019014174478755003
28.32,0.018519194280452084
28.400000000000002,0.018048352207750425
28.48,0.0176223191949562
28.560000000000002,0.017259215575587714
28.64,0.016972918569904807
28.72,0.016770932281370193
28.8,0.016652325323695715
28.88,0.016606661598959894
28.96,0.0166148684285077
29.04,0.016652473526652473
29.12,0.016694739248592556
29.2,0.016722309247718004
29.28,0.01672550564752999
29.36,0.016705660143179018
29.44,0.016672800137659483
29.52,0.016640296887812857
29.6,0.016618212906830774
29.68,0.0166076183631189
29.76,0.016597878015390574
29.84,0.016567940877552353
29.92,0.016491339423820306
30.0,0.016343379848627288
30.080000000000002,0.016108290079650613
30.16,0.015784119438093575
30.240000000000002,0.01538393010053747
30.32,0.01493301499507563
30.400000000000002,0.014463096624597735
30.48,0.014005290780990231
30.560000000000002,0.013583809648867167
30.64,0.01321193728813696
30.72,0.012890973086987334
30.8,0.01261194702989866
30.88,0.012359257627923505
30.96,0.01211510799300072
31.04,0.011863687681389106
31.12,0.011594332802730006
31.2,0.011303247284574333
31.28,0.01099368976826761
31.36,0.010674793403284089
31.44,0.010359392452585475
31.52,0.010061375120691439
31.6,0.009793137860590644
31.68,0.00956364935842333
31.76,0.009377440434216774
31.84,0.009234570550139517
31.92,0.009131373700399315
32.0,0.00906164290714687
32.08,0.00901790864632518
32.160000000000004,0.00899256856999019
32.24,0.008978755564500797
32.32,0.00897091570907399
32.4,0.00896508268698576
32.480000000000004,0.008958813411705792
32.56,0.008950752346838533
32.64,0.008939863279343067
32.72,0.008924499983753362
32.8,0.008901620352317615
32.88,0.008866497393910662
32.96,0.008813183166714427
33.04,0.008735739352912266
33.12,0.008629937568434436
33.2,0.008494881531499972
33.28,0.00833393634885081
33.36,0.00815452681424078
33.44,0.007966743046479294
33.52,0.007781129609680787
33.6,0.0076063560138708
33.68,0.007447534236725739
33.76,0.007305727397824919
33.84,0.0071787671667649855
33.92,0.007063032405389398
34.0,0.006955514993688265
34.08,0.006855426284783907
34.160000000000004,0.006764791798260218
34.24,0.006687855842251679
34.32,0.006629527577886459
34.4,0.006593403248443749
34.480000000000004,0.0065800066732658435
34.56,0.006585790019570641
34.64,0.006603186926096272
34.72,0.0066217044566531085
34.800000000000004,0.006629770832017739
34.88,0.006616884165692639
34.96,0.006575557831093862
35.04,0.006502625717794305
35.12,0.006399632999427071
35.2,0.006272260374479776
35.28,0.006128964436011623
35.36,0.005979205801879904
35.44,0.005831724653257351
35.52,0.005693279871550497
35.6,0.005568104901937541
35.68,0.005458104798663573
35.76,0.005363599770123417
35.84,0.005284277090431065
35.92,0.0052199806681211755
36.0,0.005171046107883353
36.08,0.005138053596942167
36.160000000000004,0.00512108110610857
36.24,0.005118744008414815
36.32,0.005127441152749441
36.4,0.005141228889107137
36.480000000000004,0.005152578386839914
36.56,0.005153962555111236
36.64,0.005139864732275894
36.72,0.005108547380657925
36.800000000000004,0.0050628964823209305
36.88,0.005009913481848066
36.96,0.004958886763761556
37.04,0.004918762517432308
37.12,0.00489554757396501
37.2,0.004890579096183072
37.28,0.0049001852101331796
37.36,0.004916768488469259
37.44,0.0049308738999698015
37.52,0.0049335346293589944
37.6,0.004918201954084682
37.68,0.004881812368690029
37.76,0.004824890857690207
37.84,0.0047508832438830344
37.92,0.0046650576343955545
38.0,0.004573306930120241
38.08,0.004481083227460903
38.160000000000004,0.0043925840239976074
38.24,0.004310243933311436
38.32,0.004234566551660755
38.4,0.0041643222508580035
38.480000000000004,0.004097098463269497
38.56,0.00403010902495715
38.64,0.0039610779884439225
38.72,0.0038889621816602313
38.800000000000004,0.0038143049012749532
38.88,0.0037391215995878613
38.96,0.0036663675244072544
39.04,0.003599167393878249
39.12,0.003540049256264698
39.2,0.0034904018125726756
39.28,0.003450284543345095
39.36,0.0034186015932602593
39.44,0.0033935435244863868
39.52,0.0033731335892946265
39.6,0.003355699217355234
39.68,0.003340124409344557
39.76,0.0033258149013440006
39.84,0.0033124069865337453
39.92,0.0032993457784957097
40.0,0.0032855177297699822
40.08,0.0032691190864725037
40.160000000000004,0.003247869033414113
40.24,0.0032195529412665886
40.32,0.0031827502166171975
40.4,0.0031375130561217307
40.480000000000004,0.0030857532561830744
40.56,0.0030311706838580363
40.64,0.002978693338571664
40.72,0.0029335482821961226
40.800000000000004,0.002900195596496143
40.88,0.0028813990619320487
40.96,0.0028776672548515812
41.04,0.0028871928917741443
41.12,0.002906281494486039
41.2,0.0029301354050072573
41.28,0.002953782249802031
41.36,0.0029729264315180763
41.44,0.0029845527204281665
41.52,0.0029871972004825824
41.6,0.0029808895871878856
41.68,0.002966836296575282
41.76,0.002946946511566406
41.84,0.0029233108108588438
41.92,0.002897736353022584
42.0,0.002871430366490871
42.08,0.0028448999021421723
42.160000000000004,0.0028180912392597414
42.24,0.0027907266097771657
42.32,0.0027627261297868662
42.4,0.0027345592462319195
42.480000000000004,0.002707379602266873
42.56,0.0026828658329808254
42.64,0.0026627962773079087
42.72,0.0026484871613590994
42.800000000000004,0.0026402817239782207
42.88,0.002637271033407991
42.96,0.0026373600772526583
43.04,0.002637688779971222
43.12,0.002635308794542556
43.2,0.0026279336485160497
43.28,0.0026145455676576277
43.36,0.002595670018737846
43.44,0.0025732169784151507
43.52,0.0025499159862288866
43.6,0.002528502775084023
43.68,0.0025109037700971754
43.76,0.0024976752558036885
43.84,0.0024878765001179297
43.92,0.0024794138755209784
44.0,0.0024697361055492015
44.08,0.002456647012517507
44.160000000000004,0.0024389734421628034
44.24,0.0024168904983581582
44.32,0.002391834534776951
44.4,0.002366072760638504
44.480000000000004,0.0023420927826012065
44.56,0.002321995792311498
44.64,0.0023070294646063486
44.72,0.0022973171612989535
44.800000000000004,0.0022917739439734953
44.88,0.0022881764984785443
44.96,0.0022833717795948776
45.04,0.0022736386336117027
45.12,0.002255220163046752
45.2,0.0022250009978328975
45.28,0.0021812242517082418
45.36,0.0021240687986730494
45.44,0.002055888074627959
45.52,0.0019809759865660644
45.6,0.0019048622226190085
45.68,0.0018332972099118546
45.76,0.0017711986238364008
45.84,0.0017218462958725617
45.92,0.0016865229273083614
46.0,0.0016646428294454958
46.08,0.0016542549767201847
46.160000000000004,0.0016527096693859378
46.24,0.0016572684340813992
46.32,0.0016655036620814856
46.4,0.0016754393686783768
46.480000000000004,0.001685482579979209
46.56,0.0016942543321878285
46.64,0.0017004396457929137
46.72,0.0017027453539887952
46.800000000000004,0.0017000013476959827
46.88,0.001691383641698723
46.96,0.0016766915959609725
47.04,0.0016565863287665294
47.12,0.0016326978072774
47.2,0.0016075347042108883
47.28,0.0015841789469561891
47.36,0.0015658051435738299
47.44,0.0015551182915956793
47.52,0.0015538350688472716
47.6,0.0015623329058920762
47.68,0.0015795547901832283
47.76,0.0016031955995302397
47.84,0.0016301259606682841
47.92,0.0016569532748706914
48.0,0.0016805929396170038
48.08,0.0016987314804987885
48.160000000000004,0.0017101006394707949
48.24,0.0017145323815115701
48.32,0.0017128129769436104
48.4,0.0017063889168699234
48.480000000000004,0.0016969955644160692
48.56,0.0016862839085377349
48.64,0.0016755151624334164
48.72,0.0016653784269377025
48.800000000000004,0.0016559627292670603
48.88,0.0016468827379120116
48.96,0.0016375230397426208
49.04,0.0016273381304704806
49.120000000000005,0.0016161324446920325
49.2,0.00160424995990862
49.28,0.0015926231405225325
49.36,0.0015826598475396012
49.44,0.0015759785838102489
49.52,0.0015740339573124332
49.6,0.0015777034999817086
49.68,0.0015869296064474625
49.76,0.0016005177899924145
49.84,0.001616174379429694
49.92,0.0016308176483192244
50.0,0.0016411224344548697
50.08,0.0016441802433116853
50.160000000000004,0.001638104439542834
50.24,0.0016224098902119927
50.32,0.0015980572011287802
50.4,0.0015671565138164825
50.480000000000004,0.0015324357838216937
50.56,0.0014966488457710328
50.64,0.0014621003136796804
50.72,0.0014303992877062223
50.800000000000004,0.0014024545115625363
50.88,0.00137863667617295
50.96,0.0013589952083768904
51.04,0.0013434347521912998
51.120000000000005,0.001331808612671584
51.2,0.0013239372523064265
51.28,0.0013195834650219472
51.36,0.0013184098813773422
51.44,0.0013199276690336985
51.52,0.0013234401558087465
51.6,0.0013279994404447222
51.68,0.001332414791207371
51.76,0.001335355137455068
51.84,0.0013355592613456795
51.92,0.001332113901480721
52.0,0.0013247098997862077
52.08,0.0013137713634770072
52.160000000000004,0.0013003873183023776
52.24,0.0012860471180063324
52.32,0.0012722569307726996
52.4,0.0012601598250154642
52.480000000000004,0.001250277682058416
52.56,0.0012424450217466288
52.64,0.0012359368708951112
52.72,0.0012297333334937172
52.800000000000004,0.001222831863627056
52.88,0.0012145189065969862
52.96,0.0012045376383003
53.04,0.0011931245588780656
53.120000000000005,0.00118092240482245
53.2,0.0011688026684646873
53.28,0.0011576453347204993
53.36,0.0011481269338213399
53.44,0.0011405626721012769
53.52,0.001134836237275975
53.6,0.0011304334187465029
53.68,0.001126574436019108
53.76,0.001122417285725698
53.84,0.0011172847998715913
53.92,0.0011108573927147707
54.0,0.0011032773163930222
54.08,0.0010951308884961722
54.160000000000004,0.0010873088171483095
54.24,0.0010807815247351076
54.32,0.0010763534289906485
54.4,0.0010744670159937287
54.480000000000004,0.001075110898252214
54.56,0.0010778514655779834
54.64,0.0010819676395025654
54.72,0.0010866370902722457
54.800000000000004,0.0010911110452431103
54.88,0.001094826908237783
54.96,0.0010974378244711237
55.04,0.0010987736229070913
