Frequency,PSD
6.0,0.4593443969364458
6.08,0.459646988254268
6.16,0.4602618018839023
6.24,0.46120737338285933
6.32,0.46250973766868253
6.4,0.4642004366268429
6.48,0.4663140679601764
6.5600000000000005,0.4688855308364203
6.640000000000001,0.47194713961724916
6.72,0.4755257806859586
6.8,0.4796402796240801
6.88,0.4842991281718612
6.96,0.48949869472456103
7.04,0.49522201117426823
7.12,0.5014381954130708
7.2,0.5081025352652132
7.28,0.5151572280504644
7.36,0.5225327418169887
7.44,0.5301497402691853
7.5200000000000005,0.5379214936921767
7.6000000000000005,0.5457566824145342
7.68,0.5535624869748672
7.76,0.5612478495633852
7.84,0.5687267840818373
7.92,0.5759216072322653
8.0,0.5827659607473028
8.08,0.5892074959381709
8.16,0.5952100971506515
8.24,0.6007555315400569
8.32,0.6058444296841896
8.4,0.610496525407322
8.48,0.6147501136149804
8.56,0.6186607209965487
8.64,0.6222990243928259
8.72,0.6257480929735358
8.8,0.6291000701115758
8.88,0.6324524457059765
8.96,0.6359040965098177
9.040000000000001,0.6395512880273725
9.120000000000001,0.643483834807961
9.200000000000001,0.647781605589862
9.28,0.6525115360651614
9.36,0.6577252766338402
9.44,0.6634575581410267
9.52,0.6697253089245907
9.6,0.6765275058141933
9.68,0.6838456944728672
9.76,0.6916450748521539
9.84,0.6998760190458055
9.92,0.7084758739198085
10.0,0.7173709006835893
10.08,0.7264782176944997
10.16,0.7357076394368878
10.24,0.7449633406623941
10.32,0.754145315980596
10.4,0.7631506470045548
10.48,0.7718746266184608
10.56,0.7802118185694484
10.64,0.7880571467989478
10.72,0.7953071104232974
10.8,0.801861206342553
10.88,0.8076236131221781
10.96,0.8125051497614544
11.040000000000001,0.8164254754019502
11.120000000000001,0.8193154461743678
11.200000000000001,0.8211194990133408
11.28,0.8217978951116744
11.36,0.8213286327867652
11.44,0.8197088346952187
11.52,0.8169554296549024
11.6,0.8131049849142074
11.68,0.8082125985453545
11.76,0.8023498297473217
11.84,0.7956017215738749
11.92,0.7880630491310668
12.0,0.779833999245893
12.08,0.7710155477701619
12.16,0.7617048416767362
12.24,0.7519909100483281
12.32,0.7419510180897555
12.4,0.7316479409248373
12.48,0.7211283712016203
12.56,0.7104225908945827
12.64,0.699545439750675
12.72,0.6884985087560598
12.8,0.6772733858581691
12.88,0.6658556920676219
12.96,0.6542295772674632
13.040000000000001,0.6423823032016353
13.120000000000001,0.6303085304803064
13.200000000000001,0.6180139484744869
13.280000000000001,0.6055179400851176
13.36,0.5928550530354662
13.44,0.5800751484999879
13.52,0.5672422076585824
13.6,0.5544318873071153
13.68,0.541728017145675
13.76,0.5292183149876188
13.84,0.516989654917921
13.92,0.505123252896902
14.0,0.4936901328133171
14.08,0.4827472047822429
14.16,0.4723342304335735
14.24,0.46247187304725296
14.32,0.45316094110151195
14.4,0.4443828402083505
14.48,0.43610115848789516
14.56,0.42826423131695557
14.64,0.4208084688105267
14.72,0.4136621872988496
14.8,0.4067496664020675
14.88,0.39999515604733415
14.96,0.39332658106817603
15.040000000000001,0.38667873150624865
15.120000000000001,0.3799957799189402
15.200000000000001,0.3732330277378719
15.280000000000001,0.3663578456832113
15.36,0.35934983332475273
15.44,0.3522002756373524
15.52,0.34491101631456456
15.6,0.3374928963240915
15.68,0.32996392061249524
15.76,0.322347316144248
15.84,0.31466963188070396
15.92,0.30695900810002974
16.0,0.29924371154395607
16.080000000000002,0.2915509975502185
16.16,0.28390632396739174
16.240000000000002,0.2763329074181947
16.32,0.26885158308931095
16.4,0.26148090674949787
16.48,0.2542374234431639
16.56,0.2471360217790955
16.64,0.2401902956567904
16.72,0.23341284566856443
16.8,0.22681546873491418
16.88,0.2204092048149439
16.96,0.21420423159763868
17.04,0.20820961970104954
17.12,0.20243298000987328
17.2,0.19688004960682529
17.28,0.1915542719927265
17.36,0.18645643019313035
17.44,0.1815843877757979
17.52,0.17693298322923212
17.6,0.17249410861987508
17.68,0.1682569854614952
17.76,0.16420863112174405
17.84,0.16033448982784967
17.92,0.15661918533687635
18.0,0.15304733928980618
18.080000000000002,0.149604391454892
18.16,0.14627735624085234
18.240000000000002,0.14305545418584564
18.32,0.1399305671617546
18.400000000000002,0.13689748078311245
18.48,0.13395389554249817
18.56,0.13110020778533407
18.64,0.12833908094851126
18.72,0.12567484474952764
18.8,0.12311277369491667
18.88,0.12065830522696219
18.96,0.11831626137136529
19.04,0.11609013573543367
19.12,0.1139815005049364
19.2,0.11198957652911191
19.28,0.11011099486284108
19.36,0.10833976168294304
19.44,0.1066674218306933
19.52,0.10508340081424897
19.6,0.10357549219735143
19.68,0.10213044786551562
19.76,0.10073462328227786
19.84,0.0993746287022241
19.92,0.0980379401742386
20.0,0.09671343048184379
20.080000000000002,0.09539178909866661
20.16,0.09406581079684949
20.240000000000002,0.09273054369604733
20.32,0.09138329829791614
20.400000000000002,0.09002352857771231
20.48,0.0886526038711209
20.56,0.08727349571321918
20.64,0.08589040681625915
20.72,0.08450837009627093
20.8,0.08313284433941859
20.88,0.08176933012931188
20.96,0.08042302549824507
21.04,0.0790985358980651
21.12,0.07779964796311792
21.2,0.07652917155358682
21.28,0.0752888500407682
21.36,0.0740793349601023
21.44,0.07290021816256805
21.52,0.07175011251161237
21.6,0.07062677100249615
21.68,0.06952723386454518
21.76,0.0684479936339658
21.84,0.0673851692038306
21.92,0.06633468128639011
22.0,0.06529242336123359
22.080000000000002,0.06425442382891401
22.16,0.06321699655620838
22.240000000000002,0.062176878131829455
22.32,0.0611313508453842
22.400000000000002,0.060078350615579604
22.48,0.05901655885391897
22.56,0.05794547665403395
22.64,0.05686547890051205
22.72,0.05577784509194847
22.8,0.05468476308488918
22.88,0.05358930178995212
22.96,0.05249534924899223
23.04,0.051407513586170114
23.12,0.05033098606466184
23.2,0.04927136780987975
23.28,0.04823446450534255
23.36,0.0472260562803469
23.44,0.04625165279219848
23.52,0.04531624584671287
23.6,0.04442407350570422
23.68,0.04357841026097379
23.76,0.04278139735727934
23.84,0.04203392567372338
23.92,0.041335580790388696
24.0,0.040684656152685114
24.080000000000002,0.040078235873399634
24.16,0.03951234402572601
24.240000000000002,0.03898215266059821
24.32,0.03848223661024605
24.400000000000002,0.03800685976351171
24.48,0.037550275196746856
24.560000000000002,0.037107020505330844
24.64,0.03667218998719899
24.72,0.03624166695275399
24.8,0.03581230224169792
24.88,0.035382028792743256
24.96,0.0349499065439295
25.04,0.03451609670317717
25.12,0.034081769168851986
25.2,0.03364895125780515
25.28,0.03322032960836865
25.36,0.03279901991874805
25.44,0.03238832087880777
25.52,0.03199146915819574
25.6,0.031611411614588844
25.68,0.03125060905619513
25.76,0.030910883085689005
25.84,0.030593313990989343
25.92,0.030298193608776103
26.0,0.03002503288248498
26.080000000000002,0.029772619794653375
26.16,0.029539119790413293
26.240000000000002,0.029322208005180914
26.32,0.02911922078542971
26.400000000000002,0.028927313285506427
26.48,0.028743610377292297
26.560000000000002,0.028565339659874893
26.64,0.028389937837321112
26.72,0.028215124888224793
26.8,0.028038943957993247
26.88,0.027859768405636635
26.96,0.027676280574875776
27.04,0.027487429319454783
27.12,0.027292374856181426
27.2,0.02709043001293133
27.28,0.026881006370435764
27.36,0.026663572277051215
27.44,0.02643762746556349
27.52,0.02620269632335937
27.6,0.025958339108816238
27.68,0.02570417791417868
27.76,0.02543993225064385
27.84,0.025165457994426148
27.92,0.02488078319342073
28.0,0.024586134881695452
28.080000000000002,0.024281952456168234
28.16,0.023968885113520893
28.240000000000002,0.02364777304038605
28.32,0.0233196141894762
28.400000000000002,0.022985520273356944
28.48,0.022646666840396124
28.560000000000002,0.0223042428266158
28.64,0.021959404768578623
28.72,0.02161323998477236
28.8,0.021266741643253387
28.88,0.020920796950181026
28.96,0.020576187963506437
29.04,0.020233602996057167
29.12,0.01989365541854877
29.2,0.019556906034857865
29.28,0.01922388512763959
29.36,0.018895110728174142
29.44,0.018571100544438515
29.52,0.018252376128660784
29.6,0.017939459097630086
29.68,0.017632860356803316
29.76,0.0173330641727163
29.84,0.017040509486178457
29.92,0.016755571019601106
30.0,0.01647854252487734
30.080000000000002,0.016209624015344763
30.16,0.015948914135437732
30.240000000000002,0.01569640807043932
30.32,0.015452000707729197
30.400000000000002,0.015215494228353211
30.48,0.014986608994943178
30.560000000000002,0.014764996526682315
30.64,0.01455025348903979
30.72,0.014341935915456312
30.8,0.014139573238271728
30.88,0.013942682049475803
30.96,0.01375077976090235
31.04,0.013563398434350463
31.12,0.01338009898297704
31.2,0.01320048571915332
31.28,0.013024220885368917
31.36,0.01285103842130231
31.44,0.012680755870388461
31.52,0.012513283089065864
31.6,0.012348626352052224
31.68,0.012186886582884741
31.76,0.012028250785182328
31.84,0.011872976279542955
31.92,0.011721368009118022
32.0,0.011573749889454575
32.08,0.011430431861845345
32.160000000000004,0.011291674882834328
32.24,0.011157656476884131
32.32,0.011028439646171517
32.4,0.010903947848138614
32.480000000000004,0.010783948421685308
32.56,0.01066804629546065
32.64,0.01055568909544855
32.72,0.010446183946569675
32.8,0.010338725403520741
32.88,0.010232433118435606
32.96,0.010126397119857836
33.04,0.010019727990904106
33.12,0.009911608832827153
33.2,0.00980134570707782
33.28,0.00968841327317529
33.36,0.009572492576181814
33.44,0.009453498368889873
33.52,0.009331593952098299
33.6,0.00920719224516864
33.68,0.009080942615528472
33.76,0.008953703852496024
33.84,0.008826504517877877
33.92,0.008700492693093736
34.0,0.008576877822009967
34.08,0.008456867876725043
34.160000000000004,0.008341605413961273
34.24,0.008232106216042881
34.32,0.00812920410855734
34.4,0.0080335052167783
34.480000000000004,0.007945354380264039
34.56,0.007864815720841863
34.64,0.007791668498857721
34.72,0.007725418453513435
34.800000000000004,0.007665323870596811
34.88,0.007610434723164662
34.96,0.0075596424530648175
35.04,0.007511737360069693
35.12,0.007465470183015983
35.2,0.007419614317382819
35.28,0.007373025218924178
35.36,0.007324693874839045
35.44,0.007273791745024186
35.52,0.007219705233832073
35.6,0.007162058486223446
35.68,0.007100724047788579
35.76,0.00703582162711115
35.84,0.006967705803138888
35.92,0.0068969439963577385
36.0,0.006824286354338255
36.08,0.006750629390168145
36.160000000000004,0.006676975271394261
36.24,0.0066043886126947796
36.32,0.006533952508273237
36.4,0.006466725380675973
36.480000000000004,0.006403700047710286
36.56,0.006345766236914443
36.64,0.006293677616787924
36.72,0.0062480242656399645
36.800000000000004,0.006209211354998119
36.88,0.006177444673001091
36.96,0.006152723441140953
37.04,0.006134840674729505
37.12,0.006123391098559107
37.2,0.006117786356656811
37.28,0.006117276958825687
37.36,0.006120980103667651
37.44,0.006127912229844918
37.52,0.006137024898416573
37.6,0.006147242422255484
37.68,0.006157499552963459
37.76,0.006166777524215577
37.84,0.0061741368380565775
37.92,0.006178745363854942
38.0,0.006179900586877453
38.08,0.006177045176590181
38.160000000000004,0.006169775420774069
38.24,0.006157842464898544
38.32,0.00614114668117846
38.4,0.006119725844548004
38.480000000000004,0.006093738093124553
38.56,0.006063440882976621
38.64,0.00602916730081299
38.72,0.005991301168509662
38.800000000000004,0.005950252360206552
38.88,0.00590643366053978
38.96,0.0058602403297511405
39.04,0.00581203331939382
39.12,0.005762126815157956
39.2,0.005710780486843033
39.28,0.005658196516999555
39.36,0.005604521177266831
39.44,0.005549850443017427
39.52,0.0054942388998331345
39.6,0.005437711014938409
39.68,0.005380273735407349
39.76,0.005321929340798852
39.84,0.005262687523743879
39.92,0.005202575794554074
40.0,0.005141647495496746
40.08,0.00507998695110774
40.160000000000004,0.005017711551865219
40.24,0.004954970845299721
40.32,0.004891942965550965
40.4,0.004828828945261307
40.480000000000004,0.004765845602349699
40.56,0.004703217764828564
40.64,0.004641170583912428
40.72,0.004579922592727798
40.800000000000004,0.004519680007571817
40.88,0.004460632561171566
40.96,0.004402950928663247
41.04,0.00434678558550295
41.12,0.004292266749928888
41.2,0.00423950493443737
41.28,0.004188591577440888
41.36,0.004139599254971466
41.44,0.004092581079828939
41.52,0.004047569068588099
41.6,0.0040045714733739956
41.68,0.003963569307025984
41.76,0.003924512506149041
41.84,0.0038873163464435596
41.92,0.0038518588231336182
42.0,0.003817979718740089
42.08,0.00378548199371049
42.160000000000004,0.003754135956899984
42.24,0.0037236864184880336
42.32,0.003693862723427115
42.4,0.003664391242004946
42.480000000000004,0.0036350095921700238
42.56,0.0036054816218002205
42.64,0.003575612018991872
42.72,0.003545259366775676
42.800000000000004,0.0035143465256808667
42.88,0.0034828674102547726
42.96,0.003450889507478189
43.04,0.003418551837843474
43.12,0.0033860584467651847
43.2,0.0033536678937382772
43.28,0.0033216795385420435
43.36,0.003290417672637347
43.44,0.0032602146843953555
43.52,0.003231394466623157
43.6,0.0032042571761855317
43.68,0.0031790662545431916
43.76,0.0031560383426958594
43.84,0.003135336410125464
43.92,0.0031170661036259914
44.0,0.0031012750448939676
44.08,0.00308795459476539
44.160000000000004,0.0030770434757159022
44.24,0.0030684326084796758
44.32,0.0030619705664517837
44.4,0.003057469164932875
44.480000000000004,0.0030547088557174827
44.56,0.0030534437623233428
44.64,0.0030534063401618447
44.72,0.0030543117575992235
44.800000000000004,0.003055862155418995
44.88,0.0030577509507889126
44.96,0.0030596673143789416
45.04,0.003061300880175047
45.12,0.003062346665601264
45.2,0.003062510104115913
45.28,0.0030615120396973276
45.36,0.003059093512687242
45.44,0.003055020181823992
45.52,0.003049086272666063
45.6,0.0030411180063420404
45.68,0.0030309765291760757
45.76,0.00301856041711809
45.84,0.0030038078555353655
45.92,0.002986698586560574
46.0,0.0029672556714905457
46.08,0.002945547040635061
46.160000000000004,0.0029216867097193143
46.24,0.0028958354469659116
46.32,0.002868200596248243
46.4,0.0028390347158005133
46.480000000000004,0.0028086326912485013
46.56,0.0027773270326247185
46.64,0.002745481166814348
46.72,0.002713480681980785
46.800000000000004,0.002681722655347215
46.88,0.0026506033826488064
46.96,0.002620505006945325
47.04,0.002591781697145086
47.12,0.002564746135721198
47.2,0.002539657128095337
47.28,0.0025167091356452682
47.36,0.002496024458654069
47.44,0.002477648658851545
47.52,0.0024615496228777047
47.6,0.0024476204416644907
47.68,0.0024356860332941377
47.76,0.002425513187114328
47.84,0.002416823474039615
47.92,0.0024093082703166395
48.0,0.002402644995547522
48.08,0.002396513582620767
48.160000000000004,0.0023906121849551903
48.24,0.002384671186913892
48.32,0.0023784647123931656
48.4,0.002371819014446528
48.480000000000004,0.002364617360251786
48.56,0.0023568012815554373
48.64,0.0023483683194900143
48.72,0.002339366632452232
48.800000000000004,0.0023298870365738057
48.88,0.00232005319402628
48.96,0.002310010744400841
49.04,0.0022999161847174834
49.120000000000005,0.002289926247402395
49.2,0.002280188412472385
49.28,0.0022708330352649506
49.36,0.0022619673928235898
49.44,0.0022536717702149357
49.52,0.002245997541069824
49.6,0.0022389670596062276
49.68,0.00223257508436674
49.76,0.0022267914009789502
49.84,0.002221564300528278
49.92,0.002216824594461573
50.0,0.002212489895418914
50.08,0.002208468953342462
50.160000000000004,0.0022046658951727256
50.24,0.0022009842642591385
50.32,0.00219733078571243
50.4,0.0021936187942519364
50.480000000000004,0.00218977125410684
50.56,0.002185723282396475
50.64,0.0021814240668270243
50.72,0.0021768380549899193
50.800000000000004,0.0021719452944161076
50.88,0.0021667408257818738
50.96,0.0021612330783319506
51.04,0.0021554412846073318
51.120000000000005,0.0021493920146741646
51.2,0.002143115018735965
51.28,0.002136638649794763
51.36,0.002129985203157868
51.44,0.0021231665468021254
51.52,0.0021161804186309568
51.6,0.0021090077304647143
51.68,0.0021016111458247583
51.76,0.0020939350956217934
51.84,0.0020859072729676083
51.92,0.002077441518462935
52.0,0.0020684418843551836
52.08,0.00205880756309864
52.160000000000004,0.002048438293760146
52.24,0.0020372398254383476
52.32,0.002025129022920477
52.4,0.002012038244126888
52.480000000000004,0.0019979186953134748
52.56,0.0019827425692465345
52.64,0.0019665038826227523
52.72,0.0019492180405860596
52.800000000000004,0.001930920258127744
52.88,0.001911663052350937
52.96,0.0018915130807213142
53.04,0.0018705476360162277
53.120000000000005,0.001848851118731649
53.2,0.0018265117941575334
53.28,0.0018036191072501968
53.36,0.0017802617773656675
53.44,0.0017565268303806761
53.52,0.0017324996510644083
53.6,0.0017082650569409533
53.68,0.0016839093097567722
53.76,0.0016595228960552665
53.84,0.001635203829183059
53.92,0.0016110611572437978
54.0,0.0015872183116670828
54.08,0.0015638159058707917
54.160000000000004,0.0015410135987935637
54.24,0.0015189906777814555
54.32,0.0014979450904179913
54.4,0.0014780907626862753
54.480000000000004,0.0014596531746370752
54.56,0.0014428633140305244
54.64,0.001427950279841427
54.72,0.0014151329460243458
54.800000000000004,0.0014046112066787395
54.88,0.0013965573937224057
54.96,0.001391108478036296
55.04,0.0013883596303674792
