Frequency,PSD
6.0,0.41749559695310473
6.08,0.42396328808269146
6.16,0.43640723539900905
6.24,0.4538805764806436
6.32,0.4750568802583016
6.4,0.4983485088956246
6.48,0.5220623139875455
6.5600000000000005,0.544575971257965
6.640000000000001,0.564508632061745
6.72,0.5808569183079388
6.8,0.5930735881886688
6.88,0.6010795264323312
6.96,0.605215075120417
7.04,0.6061480677815654
7.12,0.6047588617337444
7.2,0.6020170330363951
7.28,0.5988552116653285
7.36,0.5960407222979199
7.44,0.594051121102915
7.5200000000000005,0.5929742792909856
7.6000000000000005,0.5924682317418031
7.68,0.5918179144858022
7.76,0.5901068663468979
7.84,0.5864844862215074
7.92,0.5804673557731033
8.0,0.5721854084445128
8.08,0.562485021435244
8.16,0.5528346850035557
8.24,0.5450353738926561
8.32,0.5407994163767647
8.4,0.5413091195779963
8.48,0.5468840919651708
8.56,0.5568659119695745
8.64,0.5697721251667257
8.72,0.5836915168176062
8.8,0.5968127376449505
8.88,0.6079269664386255
8.96,0.6167448065193138
9.040000000000001,0.6239232763887904
9.120000000000001,0.6307933500123691
9.200000000000001,0.6388777583289029
9.28,0.6493559565685102
9.36,0.6626453366576484
9.44,0.6782246126323276
9.52,0.6947464291182527
9.6,0.7103999359022495
9.68,0.7234153556448303
9.76,0.7325667240642141
9.84,0.7375313982814647
9.92,0.7390036344225759
10.0,0.7385264876082193
10.08,0.7380868624952639
10.16,0.7395917054833188
10.24,0.744385337449779
10.32,0.7529601211847021
10.4,0.7649508056386833
10.48,0.7794033365482766
10.56,0.7952067556316561
10.64,0.811513916915072
10.72,0.8279830777807877
10.8,0.8447492923087636
10.88,0.8621503478927721
10.96,0.8803352874601806
11.040000000000001,0.8989281409829998
11.120000000000001,0.9168878897755988
11.200000000000001,0.9326173389886463
11.28,0.9442728364232724
11.36,0.9501583615763012
11.44,0.9490742577446163
11.52,0.9405265007852224
11.6,0.9247613665088711
11.68,0.9026458768275271
11.76,0.8754512799092722
11.84,0.8446122119718463
11.92,0.8115301351870328
12.0,0.7774674243429622
12.08,0.7435407835715637
12.16,0.7107797081063398
12.24,0.6801857951739261
12.32,0.652729171540561
12.4,0.6292525847336682
12.48,0.6103060283847245
12.56,0.5959780708465657
12.64,0.5858018962113336
12.72,0.5787891773442029
12.8,0.5735964534787078
12.88,0.5687794214050642
12.96,0.5630609511668444
13.040000000000001,0.5555387411452049
13.120000000000001,0.5457855637677839
13.200000000000001,0.5338358601028637
13.280000000000001,0.5200891744979862
13.36,0.505178729289577
13.44,0.48984753022184346
13.52,0.4748524746615791
13.6,0.46089444609057056
13.68,0.4485625756056761
13.76,0.4382862984171699
13.84,0.4303006349757812
13.92,0.424635640883648
14.0,0.42113405874797916
14.08,0.419486968977011
14.16,0.41926762036412035
14.24,0.4199476185103376
14.32,0.42089600714908865
14.4,0.4213797963997646
14.48,0.42059189333875
14.56,0.4177238442767629
14.64,0.4120808518006618
14.72,0.4032156224401623
14.8,0.39104515015307884
14.88,0.375914424476071
14.96,0.3585817786746098
15.040000000000001,0.3401183036784472
15.120000000000001,0.3217345986292186
15.200000000000001,0.30456833270844225
15.280000000000001,0.2894808854567573
15.36,0.27691507137592286
15.44,0.2668544030212499
15.52,0.2588978312025639
15.6,0.2524290106747424
15.68,0.2468274477322448
15.76,0.2416528862538658
15.84,0.23674213604196317
15.92,0.2321887658846391
16.0,0.228220309546952
16.080000000000002,0.22502766818607556
16.16,0.22262013004421946
16.240000000000002,0.22076790787000825
16.32,0.21905651036447116
16.4,0.21702969092223176
16.48,0.21436071950866772
16.56,0.21098072355806063
16.64,0.20711142975314645
16.72,0.2031889224344529
16.8,0.19970844418614903
16.88,0.19705063937905476
16.96,0.195355521202065
17.04,0.19448990859477844
17.12,0.19411554131998926
17.2,0.19382452786115567
17.28,0.19328352926593115
17.36,0.19232890605496933
17.44,0.19098060215520157
17.52,0.1893797671423733
17.6,0.18768616863261944
17.68,0.18598306769472953
17.76,0.18422703028536203
17.84,0.18225625388865682
17.92,0.1798461761450209
18.0,0.17678573342778092
18.080000000000002,0.17294539468232872
18.16,0.16831639380207075
18.240000000000002,0.16301359960891534
18.32,0.1572466270602879
18.400000000000002,0.15127172229493324
18.48,0.1453396000876825
18.56,0.13965233170899924
18.64,0.1343370932283541
18.72,0.12943827477605663
18.8,0.12492456734672636
18.88,0.12070595925733424
18.96,0.11665706979800194
19.04,0.11264581520535571
19.12,0.1085670782835673
19.2,0.10437823121518279
19.28,0.10012834848072098
19.36,0.09596945245659766
19.44,0.09213981908372759
19.52,0.08891717135672192
19.6,0.08655075892023548
19.68,0.0851908420846299
19.76,0.08483740221908748
19.84,0.0853251713878706
19.92,0.08635093891396267
20.0,0.08753569921287546
20.080000000000002,0.08850343294909513
20.16,0.08895393711259383
20.240000000000002,0.0887104904770025
20.32,0.08773273222159572
20.400000000000002,0.08609712820051926
20.48,0.08395720979380718
20.56,0.0814999021272516
20.64,0.0789117293594229
20.72,0.07636130248593948
20.8,0.07399590092512044
20.88,0.07194394202459051
20.96,0.07031402547082162
21.04,0.06918507119487356
21.12,0.06858872526032171
21.2,0.06849142328450972
21.28,0.0687862512417624
21.36,0.06930252957091479
21.44,0.06983459490846317
21.52,0.07018330246809715
21.6,0.07019791429016739
21.68,0.06980505252276692
21.76,0.06901585731233643
21.84,0.06791043148357634
21.92,0.06660654718619573
22.0,0.06522411917800329
22.080000000000002,0.06385662508682607
22.16,0.06255634082988663
22.240000000000002,0.061334414875890766
22.32,0.06017198751698937
22.400000000000002,0.059036205336326864
22.48,0.05789510413781654
22.56,0.056727108682692075
22.64,0.055523424226894255
22.72,0.054284236895380866
22.8,0.05301185976379247
22.88,0.051705098550278564
22.96,0.050358538390112284
23.04,0.04896807633849001
23.12,0.04754065806950317
23.2,0.04610337618503904
23.28,0.044706415237445826
23.36,0.04341647285695689
23.44,0.04230153850451547
23.52,0.04141233594507808
23.6,0.040768025609730356
23.68,0.04035243911014107
23.76,0.040122483892495814
23.84,0.040024602236334625
23.92,0.04001136368912284
24.0,0.040050629593182716
24.080000000000002,0.04012416101814297
24.16,0.04021849974323241
24.240000000000002,0.04031489479739459
24.32,0.040384694051769886
24.400000000000002,0.04039247964668513
24.48,0.04030424210832283
24.560000000000002,0.04009536708740103
24.64,0.03975449872897322
24.72,0.03928299509360429
24.8,0.03869271197800632
24.88,0.038005044173646516
24.96,0.03725169949273966
25.04,0.036474811140299594
25.12,0.035723135346740424
25.2,0.03504302030400641
25.28,0.03446626083946739
25.36,0.0339995599539604
25.44,0.03362043745078526
25.52,0.03328201722654718
25.6,0.03292556609641006
25.68,0.032496736792023445
25.76,0.03196038140238909
25.84,0.03130971706594747
25.92,0.030567866117087887
26.0,0.029782325233827595
26.080000000000002,0.02901481588910416
26.16,0.02832969049706472
26.240000000000002,0.027783562591659136
26.32,0.02741750595228403
26.400000000000002,0.02725175165172805
26.48,0.02728205526733428
26.560000000000002,0.02747721723408709
26.64,0.027778400131022906
26.72,0.028102074479266322
26.8,0.02834862063325573
26.88,0.028417235726409168
26.96,0.02822517011185619
27.04,0.027726655510833618
27.12,0.026925673891343236
27.2,0.02587786526264367
27.28,0.024680139358494186
27.36,0.023450602539357997
27.44,0.02230450072083668
27.52,0.021332781919838395
27.6,0.02058844597138759
27.68,0.020082933178898945
27.76,0.01979169895798995
27.84,0.01966588377506044
27.92,0.0196460781858354
28.0,0.0196745147260518
28.080000000000002,0.019703216137414246
28.16,0.019697244353987772
28.240000000000002,0.01963378024249084
28.32,0.019498895381354398
28.400000000000002,0.019284232341103814
28.48,0.018985312011837275
28.560000000000002,0.01860208614310211
28.64,0.018141143775065344
28.72,0.017618164788936186
28.8,0.017059066664800376
28.88,0.016498763355469504
28.96,0.015977269776393604
29.04,0.015533722235328038
29.12,0.015199525466510098
29.2,0.014992180238923066
29.28,0.014911341377502156
29.36,0.014938259630984238
29.44,0.015038980274542799
29.52,0.015170663377966923
29.6,0.015289484190075182
29.68,0.015358141663939869
29.76,0.015351249681751788
29.84,0.015257687807415682
29.92,0.01507995901713047
30.0,0.014831325251527718
30.080000000000002,0.014531770124964469
30.16,0.01420376137258142
30.240000000000002,0.013868583875297978
30.32,0.013543834708422332
30.400000000000002,0.01324247480468236
30.48,0.012973487373201989
30.560000000000002,0.012743676520925722
30.64,0.012559635239993629
30.72,0.012428719776045203
30.8,0.01235818391103451
30.88,0.012352386692498649
30.96,0.01240888950934219
31.04,0.012514936256682943
31.12,0.012645997896297079
31.2,0.012767657892297057
31.28,0.012841167659894133
31.36,0.012831716950794885
31.44,0.012717233227246204
31.52,0.012494871603706829
31.6,0.012182726475426044
31.68,0.011815745489382442
31.76,0.011436867507951323
31.84,0.011086171963003866
31.92,0.010791517194036733
32.0,0.010563466294391588
32.08,0.010395608277081404
32.160000000000004,0.01026946117503734
32.24,0.010161771370152466
32.32,0.010051625277923545
32.4,0.009925328231885711
32.480000000000004,0.009778106792631722
32.56,0.009612872514561678
32.64,0.009437153220667193
32.72,0.009259643643810536
32.8,0.009087637222263615
32.88,0.008926017457596287
32.96,0.008777753397608674
33.04,0.00864523427293557
33.12,0.00853151632482929
33.2,0.008440727776517148
33.28,0.008377389730768512
33.36,0.00834501081314233
33.44,0.008344706910340555
33.52,0.008374591986633392
33.6,0.008430293033025818
33.68,0.008506369284050255
33.76,0.008597951443327145
33.84,0.008701778354814964
33.92,0.008816046372371171
34.0,0.008938987581474336
34.08,0.00906665836474627
34.160000000000004,0.00919084915641075
34.24,0.009298164997339124
34.32,0.009371087349818268
34.4,0.00939121896505919
34.480000000000004,0.009344078563231564
34.56,0.009224034832975056
34.64,0.009037598162524627
34.72,0.008803579046233185
34.800000000000004,0.008549575860792994
34.88,0.008305561218926406
34.96,0.008096477055013866
35.04,0.0079362271590657
35.12,0.007825034519188132
35.2,0.007750951727131918
35.28,0.007694839780319346
35.36,0.00763694629015013
35.44,0.007562771294338321
35.52,0.007466349551012372
35.6,0.007350189002752307
35.68,0.007222417116840964
35.76,0.007092671136925853
35.84,0.006968548937588749
35.92,0.006853941140164623
36.0,0.006749551442563064
36.08,0.006654861811844763
36.160000000000004,0.006570200965528449
36.24,0.0064976925867762745
36.32,0.006440596764030422
36.4,0.006401498573992632
36.480000000000004,0.006380426950319359
36.56,0.006373976778606998
36.64,0.006375900527584664
36.72,0.0063788134754294915
36.800000000000004,0.006376102118170917
36.88,0.006363135245473285
36.96,0.006337398429877943
37.04,0.006297858649999927
37.12,0.00624429990650697
37.2,0.006177310782183266
37.28,0.006099106531480958
37.36,0.00601473302947814
37.44,0.0059327955963939215
37.52,0.005864916221550424
37.6,0.005823632103741228
37.68,0.005819160998047891
37.76,0.005856033598271002
37.84,0.005930765270749084
37.92,0.006031440054187143
38.0,0.006139450972126511
38.08,0.00623295057249715
38.160000000000004,0.006291077401308716
38.24,0.006297885589732438
38.32,0.006245105707004416
38.4,0.006133271166178559
38.480000000000004,0.005971179205766408
38.56,0.0057739839330105906
38.64,0.005560393390054048
38.72,0.005349493673122564
38.800000000000004,0.005157710974541571
38.88,0.004996383769207658
38.96,0.0048703432722914455
39.04,0.004777756778149857
39.12,0.0047112608771058455
39.2,0.004660135822333955
39.28,0.004613028134072628
39.36,0.004560599476150912
39.44,0.004497511161088848
39.52,0.004423335120559463
39.6,0.004342259797009656
39.68,0.004261758339235528
39.76,0.004190629268885176
39.84,0.004136940438416814
39.92,0.004106370574211598
40.0,0.004101267130397473
40.08,0.004120499880774422
40.160000000000004,0.00415998622044283
40.24,0.004213662360741737
40.32,0.004274666753090613
40.4,0.004336524172508633
40.480000000000004,0.00439411741962352
40.56,0.004444224227517705
40.64,0.004485455223610427
40.72,0.00451761000424425
40.800000000000004,0.004540724686907553
40.88,0.004554263990196499
40.96,0.004556862010347408
41.04,0.004546720413600353
41.12,0.004522394082941894
41.2,0.004483478950788123
41.28,0.004430813678543252
41.36,0.004366146426336179
41.44,0.00429155724801001
41.52,0.004209032405487322
41.6,0.004120411599200062
41.68,0.004027637412006568
41.76,0.003933062621157618
41.84,0.003839628371878996
41.92,0.003750922605656286
42.0,0.003671255395894732
42.08,0.0036058044005634
42.160000000000004,0.0035606414863110494
42.24,0.003542265871685508
42.32,0.003556353592504228
42.4,0.0036058249307003394
42.480000000000004,0.0036888358864450377
42.56,0.003797598692367645
42.64,0.003918792475562302
42.72,0.004035746981349668
42.800000000000004,0.004131838051229936
42.88,0.0041940001567212105
42.96,0.004215204048663426
43.04,0.004195174203377458
43.12,0.004139299151054562
43.2,0.004056300905381557
43.28,0.0039555500522763486
43.36,0.0038448848641137786
43.44,0.003729498869923945
43.52,0.003612038740875576
43.6,0.0034936365774282992
43.68,0.003375304672015734
43.76,0.0032590413576259573
43.84,0.0031481729690351155
43.92,0.0030468291392110863
44.0,0.0029588550753988606
44.08,0.002886711171612242
44.160000000000004,0.0028308784741200212
44.24,0.0027900071503470392
44.32,0.002761675100396736
44.4,0.0027433614277570535
44.480000000000004,0.0027332029782637258
44.56,0.0027302739771040054
44.64,0.002734383908851029
44.72,0.0027455829126688674
44.800000000000004,0.002763619497484623
44.88,0.002787531607795395
44.96,0.00281544904653464
45.04,0.0028446159385902507
45.12,0.002871623806267381
45.2,0.00289284296508833
45.28,0.0029050063441587483
45.36,0.002905826572559781
45.44,0.0028944563126337593
45.52,0.0028715974722846004
45.6,0.00283916375089132
45.68,0.002799578242405655
45.76,0.002754963082261478
45.84,0.0027065572242829065
45.92,0.002654626130154658
46.0,0.0025989203613280276
46.08,0.0025394847872687275
46.160000000000004,0.0024774342956142455
46.24,0.0024152909587133245
46.32,0.002356646493553681
46.4,0.002305207958763749
46.480000000000004,0.0022635732375451446
46.56,0.002232229277806183
46.64,0.002209197156041523
46.72,0.002190494535624192
46.800000000000004,0.0021712675446678917
46.88,0.0021472044008410095
46.96,0.0021157748350162688
47.04,0.002076943061377328
47.12,0.002033202747046218
47.2,0.001988985977307879
47.28,0.0019496441156902425
47.36,0.001920274316640127
47.44,0.0019046824762626764
47.52,0.0019047349265831001
47.6,0.0019202476335679688
47.68,0.0019493963422706137
47.76,0.0019894478108208394
47.84,0.002037490614388276
47.92,0.0020908562631812184
48.0,0.002147080505934401
48.08,0.0022034944017043645
48.160000000000004,0.002256739543555434
48.24,0.0023025680656852364
48.32,0.0023361776488489173
48.4,0.002353089503229818
48.480000000000004,0.0023503087890591225
48.56,0.002327332305600196
48.64,0.00228657252139006
48.72,0.002232962388850953
48.800000000000004,0.0021728194514824065
48.88,0.00211234705556642
48.96,0.0020562978400034786
49.04,0.0020072474346952314
49.120000000000005,0.0019656583003391237
49.2,0.0019305823144341594
49.28,0.0019006119279639348
49.36,0.001874646860277624
49.44,0.0018521974736701412
49.52,0.001833204153300367
49.6,0.0018175834993852148
49.68,0.001804816564671876
49.76,0.00179384332596004
49.84,0.001783363264951307
49.92,0.001772444026599783
50.0,0.0017611866430489523
50.08,0.0017511385936904225
50.160000000000004,0.0017452040692369705
50.24,0.0017469617989962147
50.32,0.001759521084970135
50.4,0.0017842537688085754
50.480000000000004,0.0018198481421871464
50.56,0.0018620760209528409
50.64,0.0019044431572197429
50.72,0.0019395815519475217
50.800000000000004,0.0019609692365795024
50.88,0.00196444870713677
50.96,0.0019491053969212559
51.04,0.001917309753981765
51.120000000000005,0.0018740029075136125
51.2,0.0018255027923731564
51.28,0.0017781729143731724
51.36,0.0017372500919534198
51.44,0.0017060287842229557
51.52,0.0016854980216497294
51.6,0.001674441422408789
51.68,0.0016699382289876198
51.76,0.001668140850670987
51.84,0.0016651607658882059
51.92,0.001657883430168268
52.0,0.0016445589860433502
52.08,0.0016250698863509282
52.160000000000004,0.0016008424163634852
52.24,0.0015744334216007735
52.32,0.0015488814216394007
52.4,0.0015269612117914996
52.480000000000004,0.0015105159225375746
52.56,0.0015000436743636304
52.64,0.001494668481681902
52.72,0.0014925220206281255
52.800000000000004,0.0014914279315495242
52.88,0.0014896645570673358
52.96,0.001486541638316954
53.04,0.001482589937865592
53.120000000000005,0.001479309179001232
53.2,0.0014785861103939167
53.28,0.0014820089809553568
53.36,0.001490323756614684
53.44,0.0015032038516932245
53.52,0.0015193787055994834
53.6,0.0015370389257745492
53.68,0.0015543486685155134
53.76,0.0015698718973893326
53.84,0.001582761646272174
53.92,0.0015926569065360073
54.0,0.0015993504046193409
54.08,0.0016023900011238683
54.160000000000004,0.0016008143394658143
54.24,0.0015931767624938328
54.32,0.0015778931424787488
54.4,0.0015538078155383304
54.480000000000004,0.0015207713386695184
54.56,0.0014800113629308829
54.64,0.0014341581240735898
54.72,0.001386918459059792
54.800000000000004,0.0013425137863276723
54.88,0.0013050560710124
54.96,0.001278015614659681
55.04,0.0012638598043836907
