Frequency,PSD
6.0,0.4283295402195396
6.08,0.4285110552015687
6.16,0.42888288130779517
6.24,0.4294622283980537
6.32,0.43027398199525085
6.4,0.4313496600815556
6.48,0.43272613313119096
6.5600000000000005,0.4344441860191994
6.640000000000001,0.4365470022313581
6.72,0.4390786444495085
6.8,0.44208259250389936
6.88,0.44560038212117425
6.96,0.4496703686071899
7.04,0.4543266214367512
7.12,0.45959794121281533
7.2,0.46550698147764613
7.28,0.47206945537486633
7.36,0.4792934111346336
7.44,0.48717856978444807
7.5200000000000005,0.4957157315973606
7.6000000000000005,0.5048862723055931
7.68,0.5146617636043989
7.76,0.5250037627105587
7.84,0.5358638209687266
7.92,0.547183760656955
8.0,0.5588962619615
8.08,0.5709257890743051
8.16,0.5831898666677189
8.24,0.5956006972241918
8.32,0.608067087662456
8.4,0.6204966322062764
8.48,0.632798079077162
8.56,0.6448837926130944
8.64,0.6566722106948475
8.72,0.6680901904203068
8.8,0.6790751330548478
8.88,0.6895767824869712
8.96,0.6995585997474092
9.040000000000001,0.7089986296037603
9.120000000000001,0.7178897937907835
9.200000000000001,0.7262395689435824
9.28,0.7340690353963804
9.36,0.7414113149336004
9.44,0.7483094500474088
9.52,0.7548138123834138
9.6,0.7609791613891694
9.68,0.766861502841961
9.76,0.7725149178948566
9.84,0.7779885437290484
9.92,0.7833238846470316
10.0,0.788552616313263
10.08,0.7936950159946932
10.16,0.7987591096936381
10.24,0.803740576053249
10.32,0.8086233910945384
10.4,0.81338114222077
10.48,0.8179788897166
10.56,0.8223754139935116
10.64,0.8265256609351415
10.72,0.8303831882919861
10.8,0.8339024238774805
10.88,0.8370405702810225
10.96,0.8397590283004104
11.040000000000001,0.8420242584312941
11.120000000000001,0.8438080519069198
11.200000000000001,0.8450872351167282
11.28,0.8458428792095624
11.36,0.8460591264988335
11.44,0.8457217741474963
11.52,0.8448167718945674
11.6,0.8433287938184628
11.68,0.8412400348697449
11.76,0.8385293625315077
11.84,0.8351719244699594
11.92,0.8311392768036949
12.0,0.8264000572457575
12.08,0.8209211855379004
12.16,0.8146695329661622
12.24,0.8076139658908393
12.32,0.7997276375339
12.4,0.7909903798523832
12.48,0.7813910348831732
12.56,0.7709295636038007
12.64,0.759618780531392
12.72,0.7474855835581523
12.8,0.7345715795844767
12.88,0.7209330451855509
12.96,0.7066402049313822
13.040000000000001,0.6917758546757611
13.120000000000001,0.6764333995559024
13.200000000000001,0.6607144131923082
13.280000000000001,0.6447258527609598
13.36,0.6285770821625245
13.44,0.612376861399168
13.52,0.5962304545654186
13.6,0.5802369927083186
13.68,0.5644872032540226
13.76,0.5490615874041939
13.84,0.5340290938545249
13.92,0.519446304328347
14.0,0.5053571163640105
14.08,0.4917928835843885
14.16,0.4787729546276619
14.24,0.46630553957954907
14.32,0.45438882694961263
14.4,0.4430122742204467
14.48,0.43215799960344725
14.56,0.4218022104900281
14.64,0.4119166138169736
14.72,0.4024697639497492
14.8,0.39342831377800636
14.88,0.3847581438872602
14.96,0.3764253526155402
15.040000000000001,0.3683970964915018
15.120000000000001,0.36064227613939287
15.200000000000001,0.3531320674803417
15.280000000000001,0.34584030221822165
15.36,0.33874370536638
15.44,0.33182200103728104
15.52,0.32505790085413666
15.6,0.3184369920310114
15.68,0.31194754423183135
15.76,0.30558025558297275
15.84,0.2993279585483167
15.92,0.2931853057301079
16.0,0.28714845407993345
16.080000000000002,0.28121476362755893
16.16,0.2753825238622785
16.240000000000002,0.2696507175621927
16.32,0.26401882838329005
16.4,0.258486695075599
16.48,0.2530544119164647
16.56,0.24772227191728977
16.64,0.24249074661186854
16.72,0.23736049380939778
16.8,0.23233238265806075
16.88,0.22740752383119997
16.96,0.22258729179062692
17.04,0.21787332611620225
17.12,0.21326750003805717
17.2,0.20877184673848131
17.28,0.20438843776350013
17.36,0.200119212890988
17.44,0.19596576673123867
17.52,0.19192910366901983
17.6,0.1880093788033118
17.68,0.18420564751361085
17.76,0.1805156493964746
17.84,0.1769356529144803
17.92,0.17346038476501524
18.0,0.17008306262625897
18.080000000000002,0.1667955418763238
18.16,0.16358857679650327
18.240000000000002,0.16045218567147113
18.32,0.15737609830827837
18.400000000000002,0.1543502550904437
18.48,0.15136531993152905
18.56,0.14841316629226692
18.64,0.1454872962763002
18.72,0.1425831577477802
18.8,0.13969833295958523
18.88,0.13683258345244412
18.96,0.13398774877230948
19.04,0.13116750948008868
19.12,0.12837703662591546
19.2,0.12562255913554346
19.28,0.12291088652805969
19.36,0.12024892657551628
19.44,0.11764323588985158
19.52,0.11509963636150314
19.6,0.11262292260192747
19.68,0.11021667601630367
19.76,0.10788319091337435
19.84,0.10562350818004576
19.92,0.10343754340251002
20.0,0.1013242895742184
20.080000000000002,0.0992820700972956
20.16,0.09730881578683905
20.240000000000002,0.09540233990896119
20.32,0.09356058761105111
20.400000000000002,0.09178183999656865
20.48,0.09006485805847488
20.56,0.08840895722032058
20.64,0.08681400889775656
20.72,0.08528037092051353
20.8,0.08380875356941289
20.88,0.08240003219157677
20.96,0.08105502073350221
21.04,0.07977422299605652
21.12,0.07855757991470799
21.2,0.07740423166335864
21.28,0.0763123128417367
21.36,0.07527879742047325
21.44,0.07429940749919867
21.52,0.07336859634184739
21.6,0.07247961171400394
21.68,0.0716246404599914
21.76,0.07079502980271353
21.84,0.06998157537882824
21.92,0.06917486093798841
22.0,0.06836563035784214
22.080000000000002,0.06754516955326252
22.16,0.06670567431817125
22.240000000000002,0.06584058035070342
22.32,0.06494483375301727
22.400000000000002,0.06401508407754346
22.48,0.06304978725724995
22.56,0.06204921210355847
22.64,0.06101535096114114
22.72,0.05995174198641019
22.8,0.05886321677023052
22.88,0.05775559211191859
22.96,0.056635328236283485
23.04,0.05550917734697075
23.12,0.05438384602746921
23.2,0.05326569272465099
23.28,0.05216047764378968
23.36,0.05107317725864151
23.44,0.05000786980434542
23.52,0.048967692127701606
23.6,0.047954862658915784
23.68,0.04697076051555395
23.76,0.046016047218717465
23.84,0.04509081542085378
23.92,0.04419474849068027
24.0,0.04332727570216883
24.080000000000002,0.04248770993032158
24.16,0.04167535786524411
24.240000000000002,0.04088959645307672
24.32,0.04012991316984647
24.400000000000002,0.03939591145988906
24.48,0.03868728590116202
24.560000000000002,0.0380037741476465
24.64,0.03734509428764662
24.72,0.03671087688706879
24.8,0.03610060069312626
24.88,0.03551353987208628
24.96,0.034948728922821665
25.04,0.03440494926398766
25.12,0.033880739170027645
25.2,0.033374426455732346
25.28,0.03288418127880524
25.36,0.032408084799973286
25.44,0.0319442083132264
25.52,0.031490696881245214
25.6,0.03104585147554326
25.68,0.03060820407274255
25.76,0.0301765810065885
25.84,0.029750151004605752
25.92,0.02932845562275119
26.0,0.028911421106818307
26.080000000000002,0.02849935194418985
26.16,0.02809290743349835
26.240000000000002,0.027693063429320167
26.32,0.027301061980304374
26.400000000000002,0.026918351867734336
26.48,0.026546523089827547
26.560000000000002,0.026187238169575765
26.64,0.025842162850374693
26.72,0.025512898351557525
26.8,0.02520091695194332
26.88,0.024907502311570743
26.96,0.024633695671910476
27.04,0.02438024891388429
27.12,0.02414758539802655
27.2,0.023935769535854856
27.28,0.023744486100333174
27.36,0.02357303031813024
27.44,0.02342030973614129
27.52,0.023284858666049547
27.6,0.023164865648172796
27.68,0.023058213830592686
27.76,0.022962533454218947
27.84,0.02287526482353225
27.92,0.022793729308080123
28.0,0.022715205161023332
28.080000000000002,0.02263700436240208
28.16,0.02255654639017236
28.240000000000002,0.022471424859945334
28.32,0.0223794633858589
28.400000000000002,0.0222787577861043
28.48,0.022167702827076037
28.560000000000002,0.02204500296843777
28.64,0.021909667906656417
28.72,0.021760994972285886
28.8,0.021598541477279156
28.88,0.021422090817177893
28.96,0.02123161643242607
29.04,0.021027247595588154
29.12,0.020809240441583228
29.2,0.02057795676944961
29.28,0.02033385202801371
29.36,0.02007747268834994
29.44,0.01980946204222298
29.52,0.019530572474034884
29.6,0.019241681532414165
29.68,0.018943808736222516
29.76,0.018638130005318655
29.84,0.018325986884408105
29.92,0.018008888270222106
30.0,0.017688503076440057
30.080000000000002,0.017366643085695466
30.16,0.017045236054933386
30.240000000000002,0.01672628988439351
30.32,0.01641184927746672
30.400000000000002,0.016103946778616842
30.48,0.015804550372378354
30.560000000000002,0.015515509969530087
30.64,0.015238505120109757
30.72,0.01497499620476156
30.8,0.01472618119153396
30.88,0.014492959823578582
30.96,0.014275906834020607
31.04,0.014075255469122971
31.12,0.0138908922358436
31.2,0.013722363370197898
31.28,0.013568893047842444
31.36,0.013429412835927055
31.44,0.01330260133477125
31.52,0.013186932410604634
31.6,0.013080729917619282
31.68,0.012982226395829587
31.76,0.012889622957049884
31.84,0.01280114747377123
31.92,0.012715108289768816
32.0,0.012629940982692834
32.08,0.012544246211146401
32.160000000000004,0.012456817333271777
32.24,0.012366657233052997
32.32,0.012272984564068072
32.4,0.012175230343160617
32.480000000000004,0.012073026428032726
32.56,0.01196618783603205
32.64,0.011854691070256978
32.72,0.01173865060275596
32.8,0.011618295438958029
32.88,0.011493947292611653
32.96,0.011366001395070581
33.04,0.011234910415617708
33.12,0.011101171450543582
33.2,0.010965315609349751
33.28,0.01082789943218059
33.36,0.010689497237515562
33.44,0.010550693524358983
33.52,0.01041207471791757
33.6,0.010274219814278823
33.68,0.010137689799402227
33.76,0.010003016039542767
33.84,0.009870688117260183
33.92,0.009741141783566224
34.0,0.009614747791498436
34.08,0.009491802365060567
34.160000000000004,0.009372519951038681
34.24,0.009257028723094932
34.32,0.009145369088760508
34.4,0.009037495223791126
34.480000000000004,0.00893327945517915
34.56,0.008832519157163881
34.64,0.00873494572715069
34.72,0.008640235172919137
34.800000000000004,0.008548019861105968
34.88,0.008457901033974397
34.96,0.008369461776562517
35.04,0.008282280188282299
35.12,0.008195942563433768
35.2,0.008110056401408116
35.28,0.008024263044774473
35.36,0.007938249685754021
35.44,0.007851760400335969
35.52,0.007764605781991376
35.6,0.007676670674212062
35.68,0.007587919463409771
35.76,0.0074983984080429535
35.84,0.007408234556973531
35.92,0.0073176309525509
36.0,0.007226858015512183
36.08,0.007136241254712312
36.160000000000004,0.007046145713584415
36.24,0.006956957831414551
36.32,0.006869065634336276
36.4,0.006782838353710983
36.480000000000004,0.006698606678390419
36.56,0.006616644869203488
36.64,0.006537155893851809
36.72,0.0064602605813154175
36.800000000000004,0.006385991557488678
36.88,0.006314292424833388
36.96,0.006245022309556831
37.04,0.006177965544105336
37.12,0.006112845905449642
37.2,0.006049344515010086
37.28,0.005987120246669678
37.36,0.005925831304639206
37.44,0.005865156538531514
37.52,0.005804815069184498
37.6,0.005744582909684569
37.68,0.005684305478391159
37.76,0.005623905203183877
37.84,0.005563383788838998
37.92,0.005502819134769448
38.0,0.0054423573142784246
38.08,0.005382200421353515
38.160000000000004,0.005322591418822327
38.24,0.005263797348504554
38.32,0.005206092363948324
38.4,0.005149742005555592
38.480000000000004,0.005094989957076727
38.56,0.0050420482178002435
38.64,0.004991091227205077
38.72,0.004942254030983327
38.800000000000004,0.0048956341289482855
38.88,0.004851296247465491
38.96,0.004809278977823497
39.04,0.0047696020527583025
39.12,0.004732273016122637
39.2,0.004697292177266757
39.28,0.004664655015256239
39.36,0.004634351575023971
39.44,0.004606362831774031
39.52,0.004580654438160416
39.6,0.004557168657369997
39.68,0.004535815576765859
39.76,0.004516464855720055
39.84,0.004498939268436643
39.92,0.004483011157078571
40.0,0.004468402629860648
40.08,0.004454789956356018
40.160000000000004,0.004441812173181336
40.24,0.00442908346858614
40.32,0.00441620851513854
40.4,0.004402799610214851
40.480000000000004,0.004388494297357065
40.56,0.004372972095541346
40.64,0.0043559690589572726
40.72,0.004337289111412323
40.800000000000004,0.004316811417455443
40.88,0.004294493427205912
40.96,0.004270369619584183
41.04,0.004244546325849626
41.12,0.004217193305054959
41.2,0.00418853293855445
41.28,0.004158827998686225
41.36,0.004128368927749332
41.44,0.00409746145113723
41.52,0.00406641516696892
41.6,0.004035533534249049
41.68,0.0040051054548522445
41.76,0.003975398441191289
41.84,0.003946653204551635
41.92,0.003919079403026334
42.0,0.0038928522566745267
42.08,0.003868109765279657
42.160000000000004,0.003844950337176297
42.24,0.0038234307373936948
42.32,0.0038035643694568416
42.4,0.0037853199989162185
42.480000000000004,0.003768621093721302
42.56,0.0037533459887082376
42.64,0.0037393290771934847
42.72,0.0037263631964609602
42.800000000000004,0.0037142033146855043
42.88,0.0037025715557321287
42.96,0.003691163526253552
43.04,0.0036796558453666087
43.12,0.003667714725972644
43.2,0.003655005419416135
43.28,0.0036412023086785945
43.36,0.003625999414146354
43.44,0.0036091210537293403
43.52,0.0035903323703237976
43.6,0.00356944940163988
43.68,0.0035463483214333465
43.76,0.0035209734326294324
43.84,0.003493343450921083
43.92,0.003463555593807002
44.0,0.0034317869970646505
44.08,0.003398293029069294
44.160000000000004,0.0033634021704641998
44.24,0.0033275072744460427
44.32,0.0032910532171869563
44.4,0.0032545211780864256
44.480000000000004,0.0032184100393853592
44.56,0.003183215643585537
44.64,0.0031494088723334895
44.72,0.0031174136891350818
44.800000000000004,0.003087586400230191
44.88,0.0030601974174456013
44.96,0.0030354167446230637
45.04,0.0030133042534755475
45.12,0.0029938055717113575
45.2,0.0029767540898613214
45.28,0.0029618792241152114
45.36,0.0029488206763997066
45.44,0.0029371480387950684
45.52,0.0029263847267590147
45.6,0.0029160349223195624
45.68,0.0029056119880263055
45.76,0.0028946666924243615
45.84,0.0028828135777325507
45.92,0.0028697539012935078
46.0,0.0028552937864952457
46.08,0.0028393565106653133
46.160000000000004,0.0028219882148399107
46.24,0.0028033567169783585
46.32,0.0027837435178395403
46.4,0.002763529479774575
46.480000000000004,0.0027431750084041737
46.56,0.0027231958556781996
46.64,0.0027041358761935655
46.72,0.002686538199406993
46.800000000000004,0.0026709163271409347
46.88,0.002657726632493869
46.96,0.002647343630872538
47.04,0.002640039226933337
47.12,0.0026359669245821712
47.2,0.0026351517328776324
47.28,0.0026374862203897877
47.36,0.0026427328752645293
47.44,0.0026505326285585287
47.52,0.0026604191048468576
47.6,0.0026718378876346496
47.68,0.002684169839307325
47.76,0.002696757308525595
47.84,0.002708931904482105
47.92,0.002720042428945961
48.0,0.0027294815431219005
48.08,0.002736709813098079
48.160000000000004,0.002741275926246272
48.24,0.0027428320964295767
48.32,0.0027411439668648986
48.4,0.0027360946581097244
48.480000000000004,0.0027276829716461892
48.56,0.0027160161201657262
48.64,0.0027012976858444004
48.72,0.002683811781348938
48.800000000000004,0.0026639045829828477
48.88,0.0026419645062326393
48.96,0.00261840229454309
49.04,0.0025936321954946745
49.120000000000005,0.0025680552170352124
49.2,0.0025420452102429235
49.28,0.0025159382402558175
49.36,0.0024900254121563645
49.44,0.002464549041985252
49.52,0.0024397018293733155
49.6,0.0024156285159891364
49.68,0.002392429413710963
49.76,0.0023701651599936265
49.84,0.0023488620988549973
49.92,0.0023285177807503762
50.0,0.002309106204991841
50.08,0.0022905825736587414
50.160000000000004,0.0022728874659739585
50.24,0.0022559504596622766
50.32,0.002239693308479628
50.4,0.002224032826609861
50.480000000000004,0.002208883630912279
50.56,0.002194160856829677
50.64,0.0021797829033452093
50.72,0.00216567418965561
50.800000000000004,0.0021517678348515965
50.88,0.002138008114342567
50.96,0.002124352512616022
51.04,0.0021107731868231713
51.120000000000005,0.002097257680776267
51.2,0.002083808780925199
51.28,0.0020704434778175476
51.36,0.0020571910788129595
51.44,0.002044090599694886
51.52,0.0020311876337722294
51.6,0.0020185309482580356
51.68,0.0020061690829936522
51.76,0.001994147223158705
51.84,0.0019825045863432894
51.92,0.001971272509352154
52.0,0.0019604733482375333
52.08,0.0019501202248086227
52.160000000000004,0.0019402175733499241
52.24,0.0019307623709851826
52.32,0.0019217458809780465
52.4,0.001913155704827054
52.480000000000004,0.0019049779281580127
52.56,0.0018971991562449341
52.64,0.0018898082642491553
52.72,0.0018827977299089738
52.800000000000004,0.001876164466511369
52.88,0.0018699101254568851
52.96,0.0018640408852614587
53.04,0.0018585667833299901
53.120000000000005,0.0018535006758052487
53.2,0.0018488569284065602
53.28,0.001844649948034762
53.36,0.0018408926627062373
53.44,0.001837595048360132
53.52,0.0018347627876199321
53.6,0.0018323961298441884
53.68,0.001830489005328023
53.76,0.0018290284303810523
53.84,0.0018279942246798657
53.92,0.001827359047881043
54.0,0.0018270887489965399
54.08,0.0018271430094227506
54.160000000000004,0.001827476248987027
54.24,0.0018280387542745627
54.32,0.0018287779803491952
54.4,0.0018296399713538583
54.480000000000004,0.0018305708427994807
54.56,0.0018315182688392005
54.64,0.0018324329213273611
54.72,0.0018332698134843409
54.800000000000004,0.0018339895087410643
54.88,0.001834559163856026
54.96,0.0018349533837275496
55.04,0.0018351548726529623
