Frequency,PSD
6.0,0.5889339413091594
6.08,0.5849263053405417
6.16,0.5775433440624752
6.24,0.5679416623609783
6.32,0.5576025242199586
6.4,0.5480729055883817
6.48,0.5406932518913923
6.5600000000000005,0.5363658654013309
6.640000000000001,0.5354151214893608
6.72,0.5375737335567764
6.8,0.5420990316419168
6.88,0.5479873010961196
6.96,0.5542253107798619
7.04,0.5600085440009008
7.12,0.5648706606596785
7.2,0.5687030232864759
7.28,0.5716825671895658
7.36,0.5741546453552843
7.44,0.576524169809482
7.5200000000000005,0.5791930245600517
7.6000000000000005,0.582553239546632
7.68,0.5870168070429563
7.76,0.5930453809393831
7.84,0.6011418425331287
7.92,0.6117802183953558
8.0,0.6252757723424904
8.08,0.641625830248167
8.16,0.6603750096380756
8.24,0.6805664363485187
8.32,0.7008258895787861
8.4,0.7195881005472043
8.48,0.7354236619940386
8.56,0.7473806516647712
8.64,0.755238276228495
8.72,0.7595919426169284
8.8,0.7617434163890285
8.88,0.7634326617363021
8.96,0.7664912285096717
9.040000000000001,0.7725033504091425
9.120000000000001,0.7825339295331653
9.200000000000001,0.7969441073444732
9.28,0.8152907310079561
9.36,0.8363083172046952
9.44,0.8579925204383552
9.52,0.8778187292987591
9.6,0.893115322177712
9.68,0.9015627762088299
9.76,0.901725105021534
9.84,0.8934719416234598
9.92,0.8781481866642943
10.0,0.8584040957484786
10.08,0.8376963873753701
10.16,0.8195753475227185
10.24,0.8069449830988594
10.32,0.8014961958313694
10.4,0.8034617187982909
10.48,0.8117436430359248
10.56,0.8243526214925152
10.64,0.8390091003105986
10.72,0.8537196976544734
10.8,0.8671665693867379
10.88,0.8788227912716152
10.96,0.8888032845376588
11.040000000000001,0.8975433045186266
11.120000000000001,0.9054378097108455
11.200000000000001,0.9125664079667479
11.28,0.9185812107034292
11.36,0.9227721853762577
11.44,0.9242700163089562
11.52,0.9223141699929978
11.6,0.91650589450599
11.68,0.9069765173630544
11.76,0.8944237376792226
11.84,0.8799985733386129
11.92,0.8650609825423206
12.0,0.8508584368077731
12.08,0.8382095355070941
12.16,0.8272822653123858
12.24,0.8175360098743533
12.32,0.807850798029106
12.4,0.796811208536229
12.48,0.7830664144433795
12.56,0.7656688036695873
12.64,0.7443065086590597
12.72,0.7193818840851949
12.8,0.6919323988433803
12.88,0.6634269012154201
12.96,0.6354902550858378
13.040000000000001,0.6096133596116396
13.120000000000001,0.5868997412057722
13.200000000000001,0.5678905889474056
13.280000000000001,0.552499431771152
13.36,0.5400731073823263
13.44,0.529573682612679
13.52,0.519847070234189
13.6,0.5099156864341713
13.68,0.49921693068431594
13.76,0.487717404429849
13.84,0.4758669403687924
13.92,0.464407149337942
14.0,0.4540977966073134
14.08,0.4454514427427775
14.16,0.43856114483085795
14.24,0.43306997502232447
14.32,0.428279699119882
14.4,0.4233499179439837
14.48,0.4175154046326157
14.56,0.4102545414585593
14.64,0.4013694999986467
14.72,0.3909747824548698
14.8,0.379419881937949
14.88,0.3671848651259865
14.96,0.35478382531639807
15.040000000000001,0.3426963652102388
15.120000000000001,0.33133014419932516
15.200000000000001,0.32100524171737416
15.280000000000001,0.31194710977765877
15.36,0.30427866332690073
15.44,0.2980100830971597
15.52,0.29303245516203597
15.6,0.28912442701426017
15.68,0.2859779927372583
15.76,0.2832418678389055
15.84,0.280572704121364
15.92,0.27768009345231554
16.0,0.2743533815299754
16.080000000000002,0.27046579698872764
16.16,0.2659604316499759
16.240000000000002,0.2608286350492098
16.32,0.25509175250020255
16.4,0.24879242581877037
16.48,0.24199507800085585
16.56,0.2347904082890101
16.64,0.2272977811140882
16.72,0.21966184092963004
16.8,0.21204331943597457
16.88,0.20460652913251698
16.96,0.19750642971912355
17.04,0.190876915407749
17.12,0.1848204121681576
17.2,0.17939812212250786
17.28,0.17462069778560635
17.36,0.1704404731563563
17.44,0.16674796571188924
17.52,0.16337642067118432
17.6,0.1601179162809381
17.68,0.15675240881729127
17.76,0.1530871302437413
17.84,0.14899905714617276
17.92,0.1444697443810958
18.0,0.1396016774414421
18.080000000000002,0.13460925505407656
18.16,0.12978443857493405
18.240000000000002,0.12544431132158634
18.32,0.12187242019522274
18.400000000000002,0.11926632212857619
18.48,0.11770076862817469
18.56,0.11711143719595982
18.64,0.11730014213077752
18.72,0.11795997006794545
18.8,0.11871731989917278
18.88,0.11918626847773131
18.96,0.11902841716213128
19.04,0.11800894517447903
19.12,0.11603842912313624
19.2,0.11319140025401545
19.28,0.10969683625450202
19.36,0.10590169011511795
19.44,0.10221421437652256
19.52,0.09903752598062529
19.6,0.09670485385348937
19.68,0.09542661482741362
19.76,0.09525687550832107
19.84,0.09608376812024655
19.92,0.09764537795684844
20.0,0.09956937176888478
20.080000000000002,0.10143102632531234
20.16,0.10282063336980896
20.240000000000002,0.10340841327192579
20.32,0.10299431950909665
20.400000000000002,0.10153243681584076
20.48,0.09912511231194875
20.56,0.09598929849297014
20.64,0.09240461161524702
20.72,0.08865690613514154
20.8,0.0849911679363888
20.88,0.08158327325570733
20.96,0.07853334756802118
21.04,0.07587673483553563
21.12,0.07360437837680647
21.2,0.07168389075544039
21.28,0.07007526108664783
21.36,0.06873925329480696
21.44,0.06764000713949865
21.52,0.06674477647475688
21.6,0.06602300916927616
21.68,0.06544513815413369
21.76,0.06498003092799884
21.84,0.06459012888783756
21.92,0.06422494957599952
22.0,0.06381581418887572
22.080000000000002,0.06327590567460376
22.16,0.06250894029938427
22.240000000000002,0.061426777713849925
22.32,0.059972308483883525
22.400000000000002,0.05814073706343736
22.48,0.05599154080545899
22.56,0.05364557862730017
22.64,0.0512663811062003
22.72,0.04902987317404898
22.8,0.04709066088562739
22.88,0.04555410942615453
22.96,0.044461432080874365
23.04,0.04379076961277047
23.12,0.04347239363742143
23.2,0.043412404166911875
23.28,0.04351771384532071
23.36,0.04371589917271594
23.44,0.04396597540766259
23.52,0.04425918094101376
23.6,0.04461136864153766
23.68,0.04505000582579199
23.76,0.04559910082500411
23.84,0.04626504610622828
23.92,0.04702588884067506
24.0,0.04782611853468278
24.080000000000002,0.04857853076373566
24.16,0.04917374765784176
24.240000000000002,0.04949639854549172
24.32,0.04944508223314769
24.400000000000002,0.0489517400610471
24.48,0.04799571091325203
24.560000000000002,0.046608868697979595
24.64,0.04487057202153134
24.72,0.04289386659877603
24.8,0.04080652258574957
24.88,0.03873141807391721
24.96,0.036770391982204546
25.04,0.034994349528261776
25.12,0.03344067455048158
25.2,0.03211736869549925
25.28,0.03101206948242594
25.36,0.030103296093883933
25.44,0.029370978885848678
25.52,0.028803613189724707
25.6,0.028400287386754278
25.68,0.028167272334611276
25.76,0.02811048938064767
25.84,0.028226476983279326
25.92,0.02849495765755279
26.0,0.02887556093448141
26.080000000000002,0.029309899920932955
26.16,0.02972857123255862
26.240000000000002,0.03006134290075837
26.32,0.030248171865205432
26.400000000000002,0.03024876248898866
26.48,0.030048899330435887
26.560000000000002,0.02966247909051832
26.64,0.02912886935098475
26.72,0.02850592149901906
26.8,0.02785969228461263
26.88,0.027252633769936696
26.96,0.0267325187566498
27.04,0.02632443658143939
27.12,0.026027651052339444
27.2,0.025817988169186012
27.28,0.02565499656648227
27.36,0.02549185522160618
27.44,0.025285345802456956
27.52,0.025003410303281525
27.6,0.02462879740439647
27.68,0.02415867853836843
27.76,0.02360136669237305
27.84,0.022971964288940137
27.92,0.022288718938216576
28.0,0.02157118371776082
28.080000000000002,0.020840276373140617
28.16,0.020119397486991666
28.240000000000002,0.019435236489001213
28.32,0.018816957457671687
28.400000000000002,0.01829310465554387
28.48,0.017886576264783224
28.560000000000002,0.017608996596449208
28.64,0.017456356173138222
28.72,0.01740762151951973
28.8,0.01742716802225901
28.88,0.017470680789247326
28.96,0.017493070581582316
29.04,0.017456366315221718
29.12,0.017335638704208654
29.2,0.017121681032861016
29.28,0.016820148060429262
29.36,0.016447817027283273
29.44,0.016027325408601332
29.52,0.0155819939455663
29.6,0.015132107738323344
29.68,0.014693380423166393
29.76,0.014277480726839783
29.84,0.013893760269499037
29.92,0.013550966968300795
30.0,0.013257888721413816
30.080000000000002,0.013022457351263091
30.16,0.012849586850580297
30.240000000000002,0.012738610068897333
30.32,0.012681396368284262
30.400000000000002,0.012662035671524258
30.48,0.012658480045369562
30.560000000000002,0.012645944413517872
30.64,0.012601374111755988
30.72,0.012508004176791626
30.8,0.012358990624595043
30.88,0.012159257547003616
30.96,0.011925032349101498
31.04,0.01168099846558759
31.12,0.011455531801758768
31.2,0.011275005298611305
31.28,0.011158486242497464
31.36,0.011114144611407775
31.44,0.011138259311729586
31.52,0.011216948963454489
31.6,0.011329934477555799
31.68,0.01145509267190979
31.76,0.011572505571984004
31.84,0.011667136695912505
31.92,0.011729929642073807
32.0,0.01175768568915509
32.08,0.01175228874562057
32.160000000000004,0.011719682261588543
32.24,0.011668654478924052
32.32,0.011609234441318162
32.4,0.011550538418904684
32.480000000000004,0.011498237092701449
32.56,0.011452247768817422
32.64,0.01140551850639521
32.72,0.011344655296550042
32.8,0.011252625911736768
32.88,0.01111303789678264
32.96,0.010914842047503294
33.04,0.010656045740348716
33.12,0.010345264822452654
33.2,0.010000612036746227
33.28,0.009646252352388043
33.36,0.009307636668541886
33.44,0.009006725608446307
33.52,0.008758375193215349
33.6,0.008568586949213391
33.68,0.008434735549760583
33.76,0.00834738597094085
33.84,0.00829302972844064
33.92,0.00825702914443007
34.0,0.00822619526741981
34.08,0.008190636380273154
34.160000000000004,0.008144712355512855
34.24,0.008087076934907667
34.32,0.008019897955623809
34.4,0.00794745002056209
34.480000000000004,0.007874391884557552
34.56,0.007804142606153541
34.64,0.007737789368261233
34.72,0.007673835956463666
34.800000000000004,0.0076088359271985866
34.88,0.0075386362606961205
34.96,0.0074597283199684125
35.04,0.007370184214300529
35.12,0.007269871370554572
35.2,0.007159986841555322
35.28,0.007042261694401839
35.36,0.00691830126157404
35.44,0.006789400707666558
35.52,0.006656887232363183
35.6,0.006522748995074442
35.68,0.006390164176130869
35.76,0.00626360182436914
35.84,0.0061483799538222415
35.92,0.006049814221208436
36.0,0.005972248964276716
36.08,0.0059182685524284805
36.160000000000004,0.005888262796745152
36.24,0.005880350672356135
36.32,0.0058905488793034545
36.4,0.005913062323505934
36.480000000000004,0.005940660504080275
36.56,0.005965215634053987
36.64,0.005978524690609938
36.72,0.005973461313409789
36.800000000000004,0.005945318597226235
36.88,0.005892998082249164
36.96,0.005819595975588829
37.04,0.00573202669851516
37.12,0.005639609341436866
37.2,0.00555192216095868
37.28,0.005476536786913098
37.36,0.005417327478223301
37.44,0.005373859245888934
37.52,0.005341969586322484
37.6,0.005315243046228567
37.68,0.005286813558363374
37.76,0.005250912047271629
37.84,0.005203778972786994
37.92,0.005143860718524857
38.0,0.005071461980584199
38.08,0.004988144227741248
38.160000000000004,0.004896138261322677
38.24,0.0047979343609472124
38.32,0.004696095366036748
38.4,0.004593247455662564
38.480000000000004,0.004492148899034186
38.56,0.00439571573821714
38.64,0.004306899877960676
38.72,0.004228377824706243
38.800000000000004,0.004162108166023425
38.88,0.004108912244919914
38.96,0.00406826789522734
39.04,0.004038444231670055
39.12,0.0040169640649919
39.2,0.004001230021922811
39.28,0.003989074181707073
39.36,0.003979032547438781
39.44,0.003970280830386916
39.52,0.003962321542570079
39.6,0.003954606197053283
39.68,0.003946275292293767
39.76,0.0039361229948491365
39.84,0.003922794505034995
39.92,0.003905146126547863
40.0,0.0038826550243800293
40.08,0.0038557478670863993
40.160000000000004,0.003825916227607226
40.24,0.0037955113292820414
40.32,0.003767182371357076
40.4,0.003743046646777085
40.480000000000004,0.0037238223577008107
40.56,0.0037082471021079736
40.64,0.0036930763560822115
40.72,0.003673783440769321
40.800000000000004,0.0036458167957293536
40.88,0.0036060243797094924
40.96,0.0035537491130168157
41.04,0.003491196929477744
41.12,0.003422947614445367
41.2,0.0033548006691353025
41.28,0.0032923792784378576
41.36,0.0032399567226849835
41.44,0.0031998182432665554
41.52,0.003172217408093617
41.6,0.0031557607379221857
41.68,0.0031479590710993544
41.76,0.00314573915385401
41.84,0.0031458503364369334
41.92,0.0031452252243562755
42.0,0.0031413801493574344
42.08,0.0031328620295739294
42.160000000000004,0.003119624959141442
42.24,0.0031031451627030636
42.32,0.003086121077644937
42.4,0.0030717528105855254
42.480000000000004,0.003062782155916631
42.56,0.0030606040313816123
42.64,0.003064762351598074
42.72,0.0030730110517239798
42.800000000000004,0.0030819120755152564
42.88,0.003087748054431934
42.96,0.0030874280097553056
43.04,0.0030790931953559187
43.12,0.003062264850844836
43.2,0.0030375544380384324
43.28,0.0030061089295667755
43.36,0.0029690368708997677
43.44,0.0029270375715295107
43.52,0.002880353237588564
43.6,0.0028290245488904724
43.68,0.002773306444121427
43.76,0.0027140382471711917
43.84,0.0026527840273536055
43.92,0.0025916564097608254
44.0,0.0025328702315199556
44.08,0.0024781857591589865
44.160000000000004,0.00242844693604821
44.24,0.0023833806375667555
44.32,0.0023417187334827567
44.4,0.00230158418915263
44.480000000000004,0.002260997723284395
44.56,0.002218344315821335
44.64,0.0021726871110190615
44.72,0.0021238982987242805
44.800000000000004,0.0020726487253959567
44.88,0.0020203267213202755
44.96,0.0019689343530842826
45.04,0.001920957070584324
45.12,0.0018791585403499667
45.2,0.001846250698994403
45.28,0.0018244405396057508
45.36,0.0018149383647434684
45.44,0.00181758168802882
45.52,0.0018307381261451275
45.6,0.0018515787473812745
45.68,0.0018766811262744404
45.76,0.0019027850338010181
45.84,0.0019274485969898898
45.92,0.0019493796513884217
46.0,0.001968339789507967
46.08,0.0019846860850236334
46.160000000000004,0.001998756113062057
46.24,0.0020103577094924933
46.32,0.0020185766530155143
46.4,0.0020219876164741073
46.480000000000004,0.002019199833796937
46.56,0.002009546695569478
46.64,0.0019936774445628025
46.72,0.0019738392853724425
46.800000000000004,0.0019537318719131495
46.88,0.00193793921882646
46.96,0.0019310600844408242
47.04,0.0019367383667264967
47.12,0.001956824079396534
47.2,0.0019908691194111226
47.28,0.0020360866713570354
47.36,0.002087794577074562
47.44,0.0021402460131195004
47.52,0.0021876554559570327
47.6,0.002225181842772997
47.68,0.002249649122636633
47.76,0.002259862156753483
47.84,0.0022564885744751767
47.92,0.002241589091450391
48.0,0.002217956531062517
48.08,0.0021884478547680615
48.160000000000004,0.0021554636224352733
48.24,0.0021206621098457043
48.32,0.0020849165856375376
48.4,0.002048459368264831
48.480000000000004,0.0020111222766707425
48.56,0.001972584400430997
48.64,0.001932566788345278
48.72,0.0018909535148906552
48.800000000000004,0.001847851929855631
48.88,0.0018036193460842405
48.96,0.0017588763870878162
49.04,0.0017145062932645387
49.120000000000005,0.0016716186344399933
49.2,0.0016314490095160547
49.28,0.0015951808490598414
49.36,0.0015637083783194387
49.44,0.0015373980090798746
49.52,0.0015159303599532846
49.6,0.0014983006343323967
49.68,0.0014830155998971951
49.76,0.0014684604746796094
49.84,0.0014533416781397322
49.92,0.0014370697011828817
50.0,0.0014199510967965664
50.08,0.0014031129493755241
50.160000000000004,0.0013881695410194843
50.24,0.0013767274014672357
50.32,0.001369878805762871
50.4,0.0013678356905710669
50.480000000000004,0.0013698076710168434
50.56,0.0013741501352672152
50.64,0.0013787305249930888
50.72,0.001381407596944377
50.800000000000004,0.0013805011321520524
50.88,0.0013751453822169989
50.96,0.0013654568912895883
51.04,0.0013524929791849417
51.120000000000005,0.0013380207794383946
51.2,0.0013241514576788592
51.28,0.00131291552263638
51.36,0.001305860343438648
51.44,0.001303740580177442
51.52,0.0013063507400866599
51.6,0.0013125236120678334
51.68,0.001320294945559939
51.76,0.0013272150972482542
51.84,0.0013307698509660605
51.92,0.0013288522131695533
52.0,0.0013202062682856827
52.08,0.0013047513062302077
52.160000000000004,0.00128370097986448
52.24,0.001259426109060588
52.32,0.0012350682550659256
52.4,0.0012139788801566673
52.480000000000004,0.0011991121089501879
52.56,0.0011925158880298457
52.64,0.0011950372098578754
52.72,0.0012062908095932402
52.800000000000004,0.0012248617630753952
52.88,0.001248650258354779
52.96,0.001275242936537805
53.04,0.001302213845694785
53.120000000000005,0.0013273059714599906
53.2,0.0013484989064489533
53.28,0.0013640089328139553
53.36,0.001372284027437022
53.44,0.0013720483203495453
53.52,0.0013624248195053196
53.6,0.001343129341092402
53.68,0.001314689893250746
53.76,0.0012786135819940888
53.84,0.0012374102589340777
53.92,0.0011944013042911126
54.0,0.0011532971501778452
54.08,0.0011176059476203566
54.160000000000004,0.0010900095298831624
54.24,0.001071877878485246
54.32,0.0010630681850076719
54.4,0.0010620731184045155
54.480000000000004,0.0010664745445296449
54.56,0.0010735656000316392
54.64,0.001080960376222068
54.72,0.0010870289451429024
54.800000000000004,0.0010910632929420864
54.88,0.001093167998385608
54.96,0.001093947537466966
55.04,0.0010941091074722492
