Frequency,PSD
6.057142857142857,0.06442958690698258
6.171428571428571,0.06597378760009613
6.285714285714286,0.06898147834826894
6.3999999999999995,0.07328408519873372
6.514285714285714,0.07861486572092095
6.628571428571428,0.08460492830940644
6.742857142857143,0.09079980125746705
6.857142857142857,0.09670899486518558
6.9714285714285715,0.10188816634198981
7.085714285714285,0.10603266772226512
7.2,0.10904459140282002
7.314285714285714,0.11103730847787123
7.428571428571428,0.11226698272867193
7.542857142857143,0.11301868221032757
7.657142857142857,0.11350364483239433
7.771428571428571,0.11382534642828929
7.885714285714285,0.11404218024579423
8.0,0.1143076832572387
8.114285714285714,0.11502727364469553
8.228571428571428,0.11695238776411684
8.342857142857143,0.12114877648097339
8.457142857142857,0.1288249157376583
8.571428571428571,0.1410753732767692
8.685714285714285,0.15865352098751476
8.799999999999999,0.18190017321833324
8.914285714285715,0.21089446371840032
9.028571428571428,0.24577564871101656
9.142857142857142,0.2870714197456649
9.257142857142856,0.33583560597768936
9.371428571428572,0.39347884508064424
9.485714285714286,0.46132553389177405
9.6,0.540053098301393
9.714285714285714,0.6291904370058959
9.828571428571427,0.7267765943344797
9.942857142857143,0.8291859134720756
10.057142857142857,0.9310948640689852
10.17142857142857,1.0256205236420086
10.285714285714285,1.1047494880918232
10.4,1.1602095534678902
10.514285714285714,1.184839903563388
10.628571428571428,1.1742752907906027
10.742857142857142,1.1284610680186977
10.857142857142858,1.0523404322750247
10.971428571428572,0.9551930667652885
11.085714285714285,0.8485989362265144
11.2,0.7436466332926223
11.314285714285713,0.648428479465985
11.428571428571429,0.5667713416345974
11.542857142857143,0.4985601981757973
11.657142857142857,0.4412605973265199
11.77142857142857,0.39176987979785527
11.885714285714286,0.34776130880781275
12.0,0.30813287985945814
12.114285714285714,0.2727068657083331
12.228571428571428,0.24163276019773106
12.342857142857142,0.21491741215777188
12.457142857142857,0.1922619980476325
12.571428571428571,0.17314056397886435
12.685714285714285,0.1569540043885309
12.799999999999999,0.1431391842082416
12.914285714285715,0.1312120400009072
13.028571428571428,0.12078398811650262
13.142857142857142,0.11158536769981717
13.257142857142856,0.10349018473027996
13.371428571428572,0.0965102233032835
13.485714285714286,0.09073662792773723
13.6,0.0862425149524851
13.714285714285714,0.08299159415922902
13.828571428571427,0.08080047956311726
13.942857142857143,0.07937311242366242
14.057142857142857,0.07838406290361587
14.17142857142857,0.0775614043252166
14.285714285714285,0.07672569550598253
14.4,0.07577320460393494
14.514285714285714,0.0746265321022914
14.628571428571428,0.07319268332235353
14.742857142857142,0.07135995142890186
14.857142857142856,0.06903873198040325
14.971428571428572,0.06622348530166686
15.085714285714285,0.06303821436673875
15.2,0.059733416694030685
15.314285714285713,0.05662573067016715
15.428571428571429,0.05400063122966183
15.542857142857143,0.05201847635005949
15.657142857142857,0.05066476044828895
15.77142857142857,0.04976657583863399
15.885714285714284,0.049068397523837265
16.0,0.048334774918658174
16.114285714285714,0.04743667048216525
16.228571428571428,0.04638689866113131
16.34285714285714,0.045314458559277154
16.457142857142856,0.044395565554689154
16.57142857142857,0.04377634338044562
16.685714285714287,0.04352000868218013
16.8,0.04359352001357699
16.914285714285715,0.04388796443107358
17.02857142857143,0.044255735761426926
17.142857142857142,0.044548856723163895
17.257142857142856,0.04465036645111823
17.37142857142857,0.04449654834791758
17.485714285714284,0.04408912448920354
17.599999999999998,0.04349602626861498
17.714285714285715,0.042840232365162836
17.82857142857143,0.042278733299492624
17.942857142857143,0.04197603377664564
18.057142857142857,0.042077434806923886
18.17142857142857,0.04268688140219183
18.285714285714285,0.04385281621606024
18.4,0.04556285133211261
18.514285714285712,0.047744224479971856
18.628571428571426,0.05026420783007967
18.742857142857144,0.05292651209576557
18.857142857142858,0.05546749643743065
18.97142857142857,0.0575653256774811
19.085714285714285,0.05887777175414696
19.2,0.059114126116610495
19.314285714285713,0.058126288400805436
19.428571428571427,0.055985101031678225
19.54285714285714,0.053003815134699525
19.657142857142855,0.04968676880688836
19.771428571428572,0.04661110635010998
19.885714285714286,0.04427769950958278
20.0,0.04298074220084221
20.114285714285714,0.04273883220028945
20.228571428571428,0.04330810347619369
20.34285714285714,0.044269629793855
20.457142857142856,0.045159043251588586
20.57142857142857,0.04559430728375209
20.685714285714287,0.04536208633024539
20.8,0.044442149248712405
20.914285714285715,0.042974028522265104
21.02857142857143,0.04118920802876526
21.142857142857142,0.03933780976883379
21.257142857142856,0.03763174341475686
21.37142857142857,0.036213668468142335
21.485714285714284,0.035150329965933466
21.599999999999998,0.034442969279156015
21.714285714285715,0.03404570138010861
21.82857142857143,0.033883520596400235
21.942857142857143,0.03386476433107176
22.057142857142857,0.03388811838723694
22.17142857142857,0.03384915919502121
22.285714285714285,0.0336523102929412
22.4,0.03322946556058787
22.514285714285712,0.032559391975146956
22.628571428571426,0.031677930986138476
22.742857142857144,0.030671479713860132
22.857142857142858,0.02965377660389272
22.97142857142857,0.02873363413296426
23.085714285714285,0.027984589084893135
23.2,0.027425681940680055
23.314285714285713,0.02701799903769287
23.428571428571427,0.026676916400581608
23.54285714285714,0.026296367855274203
23.657142857142855,0.025778776283135497
23.771428571428572,0.02506245688789342
23.885714285714286,0.024138195333141852
24.0,0.023049542607644583
24.114285714285714,0.021877152881276448
24.228571428571428,0.02071396387949225
24.34285714285714,0.0196415281698485
24.457142857142856,0.018715911393757192
24.57142857142857,0.017965365642517425
24.685714285714283,0.017395689532779143
24.8,0.01699695110239451
24.914285714285715,0.01674782044418534
25.02857142857143,0.016618118996830154
25.142857142857142,0.01657244229694444
25.257142857142856,0.016576372711390154
25.37142857142857,0.016603591544336563
25.485714285714284,0.016640092398497154
25.599999999999998,0.016682419433455453
25.71428571428571,0.0167299627246101
25.82857142857143,0.016774956856077425
25.942857142857143,0.016795882438918615
26.057142857142857,0.016759167423542866
26.17142857142857,0.016630464094713103
26.285714285714285,0.01639183586400634
26.4,0.01605730947443221
26.514285714285712,0.015678535278226845
26.628571428571426,0.015335487002457328
26.742857142857144,0.015113203696730958
26.857142857142858,0.015072089692698624
26.97142857142857,0.015223232686710629
27.085714285714285,0.015519308485285679
27.2,0.015865822180163133
27.314285714285713,0.016149274530188152
27.428571428571427,0.016272287027177187
27.54285714285714,0.016183630331485517
27.657142857142855,0.015893671588210482
27.771428571428572,0.015471056665250244
27.885714285714286,0.015022205979118608
28.0,0.0146599835609692
28.114285714285714,0.014470933800442523
28.228571428571428,0.01449112422833575
28.34285714285714,0.014698359941839928
28.457142857142856,0.01502346553105235
28.57142857142857,0.01537669237899322
28.685714285714283,0.01567943173085075
28.8,0.015889031031266813
28.914285714285715,0.016007348231128694
29.02857142857143,0.01607097248915342
29.142857142857142,0.016129327803621044
29.257142857142856,0.01622179942189865
29.37142857142857,0.016364086924426112
29.485714285714284,0.016548150827270743
29.599999999999998,0.016753007519145702
29.71428571428571,0.01695911637651335
29.82857142857143,0.017159041701755164
29.942857142857143,0.01736051492830915
30.057142857142857,0.017582267888781443
30.17142857142857,0.01784565212263926
30.285714285714285,0.018165535161222036
30.4,0.018543329619041513
30.514285714285712,0.018964323869437364
30.628571428571426,0.019400613063287903
30.74285714285714,0.019819154862383264
30.857142857142858,0.020192043032145494
30.97142857142857,0.020504628757493044
31.085714285714285,0.020758135358361404
31.2,0.02096654452216761
31.314285714285713,0.02115057342245661
31.428571428571427,0.021332333452281103
31.54285714285714,0.021532442532090197
31.657142857142855,0.021768614258641468
31.77142857142857,0.022053247377761265
31.885714285714286,0.022388345583544498
32.0,0.02275855723580106
32.114285714285714,0.023125544355923896
32.22857142857143,0.02342776499639886
32.34285714285714,0.023588580301719175
32.457142857142856,0.02353282785557715
32.57142857142857,0.023208534282920055
32.68571428571428,0.022607361254498855
32.8,0.021776022906203996
32.91428571428571,0.02081257193019457
33.028571428571425,0.019846418177844945
33.14285714285714,0.019007594595026107
33.25714285714285,0.01839587319988354
33.371428571428574,0.018060764455769433
33.48571428571429,0.017998453278132962
33.6,0.018163862583345416
33.714285714285715,0.0184898264886942
33.82857142857143,0.0189044036877759
33.94285714285714,0.019341706033099725
34.05714285714286,0.019747554620617138
34.17142857142857,0.02008413912782801
34.285714285714285,0.020335746736594426
34.4,0.02051295679378218
34.51428571428571,0.0206500689302621
34.628571428571426,0.020792729727449215
34.74285714285714,0.020978383825208384
34.857142857142854,0.02121714408488782
34.97142857142857,0.02148155297891443
35.08571428571428,0.021710235749860918
35.199999999999996,0.021824939068438614
35.31428571428572,0.021755554844677668
35.42857142857143,0.021464952911498806
35.542857142857144,0.02096525779201153
35.65714285714286,0.020319620627521337
35.77142857142857,0.0196280973482918
35.885714285714286,0.019001642202675324
36.0,0.01853248276048988
36.114285714285714,0.018270505018959576
36.22857142857143,0.018213167783190962
36.34285714285714,0.01831176990070836
36.457142857142856,0.01849144165146431
36.57142857142857,0.01867788544824895
36.68571428571428,0.018821871058567714
36.8,0.018913269528471534
36.91428571428571,0.018979883369744228
37.028571428571425,0.01907169237364308
37.14285714285714,0.019236549782247075
37.25714285714285,0.019496374425555844
37.371428571428574,0.019831994230531898
37.48571428571429,0.020180925615267117
37.6,0.020448224104428477
37.714285714285715,0.020527998892206044
37.82857142857143,0.020331588349241335
37.94285714285714,0.019816026936031288
38.05714285714286,0.019003686905879415
38.17142857142857,0.017984073585197546
38.285714285714285,0.016894406171306546
38.4,0.015885070178689523
38.51428571428571,0.015083313010714281
38.628571428571426,0.014568425877273231
38.74285714285714,0.01436438671619269
38.857142857142854,0.014447077253768963
38.97142857142857,0.014758592226158404
39.08571428571428,0.015222303540918499
39.199999999999996,0.01575613048111779
39.31428571428571,0.01628396950248083
39.42857142857143,0.016745181768290148
39.542857142857144,0.01710095589482277
39.65714285714286,0.01733617601074528
39.77142857142857,0.01745650302660476
39.885714285714286,0.0174818070060622
40.0,0.0174380520107903
40.114285714285714,0.017350074527104
40.22857142857143,0.017237388231550785
40.34285714285714,0.017113974273612567
40.457142857142856,0.01699114794399774
40.57142857142857,0.016881080669438456
40.68571428571428,0.016798576001219874
40.8,0.01676016551158689
40.91428571428571,0.01678101793213925
41.028571428571425,0.016870309441186553
41.14285714285714,0.017025193657667893
41.25714285714285,0.01722412563003125
41.371428571428574,0.017422533908293753
41.48571428571429,0.017555576563595243
41.6,0.017551049410605108
41.714285714285715,0.017350113376034336
41.82857142857143,0.016927809741054137
41.94285714285714,0.01630386825988995
42.05714285714286,0.015538675274030432
42.17142857142857,0.014716654284344958
42.285714285714285,0.013924894814519268
42.4,0.01323554319801407
42.51428571428571,0.012696719411123191
42.628571428571426,0.012331608847947054
42.74285714285714,0.012142120125889194
42.857142857142854,0.012113505845295226
42.97142857142857,0.012218625424169642
43.08571428571428,0.012422654697553487
43.199999999999996,0.012689080292671465
43.31428571428571,0.012985933672243315
43.42857142857143,0.013289526759598248
43.542857142857144,0.013583470941956681
43.65714285714286,0.013853461015314854
43.77142857142857,0.014081133872591535
43.885714285714286,0.014241105998784405
44.0,0.014303548702232476
44.114285714285714,0.014241621514265175
44.22857142857143,0.014040555224002648
44.34285714285714,0.013704374463273293
44.457142857142856,0.013257389416052402
44.57142857142857,0.01273996528806968
44.68571428571428,0.012200427167691565
44.8,0.011686074137649743
44.91428571428571,0.011235758177754997
45.028571428571425,0.010874998435970024
45.14285714285714,0.010613357526772853
45.25714285714285,0.010443619405273986
45.37142857142857,0.010343031183182728
45.48571428571429,0.010277572293361507
45.6,0.010209891351508902
45.714285714285715,0.010109906961745782
45.82857142857143,0.009964905623614583
45.94285714285714,0.00978486002699944
46.05714285714286,0.009599911372885829
46.17142857142857,0.009450329955252312
46.285714285714285,0.009372939186060556
46.4,0.009389627035000826
46.51428571428571,0.009502106731545161
46.628571428571426,0.009693544567339625
46.74285714285714,0.009934375326766673
46.857142857142854,0.01018854841033737
46.97142857142857,0.010417942929055431
47.08571428571428,0.01058537738539008
47.199999999999996,0.010658380837272823
47.31428571428571,0.010615272069426985
47.42857142857143,0.010452507284720726
47.542857142857144,0.01018973422565302
47.65714285714286,0.009868667981670715
47.77142857142857,0.009544311340646426
47.885714285714286,0.00927071177561321
48.0,0.009086151446860728
48.114285714285714,0.009003062067428574
48.22857142857143,0.009006199426511274
48.34285714285714,0.009059769282383643
48.457142857142856,0.009121382739101278
48.57142857142857,0.009158759729900493
48.68571428571428,0.009164575097982077
48.8,0.009165935340051189
48.91428571428571,0.009227026704565195
49.028571428571425,0.009444945932742239
49.14285714285714,0.009938220961564848
49.25714285714285,0.010825508528290485
49.37142857142857,0.012191470889159174
49.48571428571429,0.014041707423243137
49.6,0.0162593838721355
49.714285714285715,0.018586953912853827
49.82857142857143,0.02065664873631318
49.94285714285714,0.02207615788520131
50.05714285714286,0.02254618869978917
50.17142857142857,0.02196215115850611
50.285714285714285,0.02045213248757819
50.4,0.018331981317539246
50.51428571428571,0.015999355892353254
50.628571428571426,0.013816085881114059
50.74285714285714,0.012026351488854926
50.857142857142854,0.010732239056417438
50.97142857142857,0.009917896675390961
51.08571428571428,0.009496567214072944
51.199999999999996,0.009355814206190785
51.31428571428571,0.009387933295370106
51.42857142857142,0.009504529701515354
51.542857142857144,0.009640641119484185
51.65714285714286,0.009754457671733214
51.77142857142857,0.009826400986596526
51.885714285714286,0.009858655522608159
52.0,0.009874357808459756
52.114285714285714,0.009914641462614147
52.22857142857143,0.010031516065988498
52.34285714285714,0.010275368087683047
52.457142857142856,0.010678058017654457
52.57142857142857,0.011235801923981084
52.68571428571428,0.011898680802006109
52.8,0.012573483962543196
52.91428571428571,0.013142463844949945
53.028571428571425,0.013493756292832136
53.14285714285714,0.013553238704994076
53.25714285714285,0.013306080484685784
53.37142857142857,0.012800366856606552
53.48571428571429,0.012132751458139267
53.6,0.011422945215359605
53.714285714285715,0.010786566543871397
53.82857142857143,0.010313904735050167
53.94285714285714,0.010057781314930202
54.05714285714286,0.010030067966062426
54.17142857142857,0.010205133798917503
54.285714285714285,0.010528816691569052
54.4,0.010931657397788477
54.51428571428571,0.011344202136819278
54.628571428571426,0.011710880123843723
54.74285714285714,0.011998681228242016
54.857142857142854,0.012198273672061635
54.97142857142857,0.01231779552919853
55.08571428571428,0.012372148539260053
