Frequency,PSD
6.057142857142857,0.1189311441321122
6.171428571428571,0.11887713164132689
6.285714285714286,0.11876621763458889
6.3999999999999995,0.11859575148499986
6.514285714285714,0.11837096343028584
6.628571428571428,0.11811769435875778
6.742857142857143,0.11789738888542846
6.857142857142857,0.1178174317746402
6.9714285714285715,0.11802805764741874
7.085714285714285,0.11869963088774353
7.2,0.11998121573120804
7.314285714285714,0.12195093372331023
7.428571428571428,0.12457683705168665
7.542857142857143,0.12770942408772382
7.657142857142857,0.13111997116061297
7.771428571428571,0.13458234764223598
7.885714285714285,0.1379749597386873
8.0,0.14136367331869454
8.114285714285714,0.14502618246382334
8.228571428571428,0.14939752469242817
8.342857142857143,0.1549491272036746
8.457142857142857,0.162044915319778
8.571428571428571,0.17083151999781607
8.685714285714285,0.18120765281886048
8.799999999999999,0.1928856187934968
8.914285714285715,0.20552128201086728
9.028571428571428,0.21886451515525351
9.142857142857142,0.2328794894430699
9.257142857142856,0.24780083423203758
9.371428571428572,0.26411692694810507
9.485714285714286,0.2824930287155427
9.6,0.30365712475998097
9.714285714285714,0.3282698760049054
9.828571428571427,0.35679230134684237
9.942857142857143,0.38935770680080356
10.057142857142857,0.42565321725135463
10.17142857142857,0.46482248883615357
10.285714285714285,0.5054118114820865
10.4,0.5453901940250898
10.514285714285714,0.5822721491721373
10.628571428571428,0.613354381704484
10.742857142857142,0.636045949690443
10.857142857142858,0.6482358768812274
10.971428571428572,0.6486182324905364
11.085714285714285,0.6368956799492619
11.2,0.6138114636893348
11.314285714285713,0.5810066117298299
11.428571428571429,0.540745261476903
11.542857142857143,0.49557931305416614
11.657142857142857,0.44802666798819635
11.77142857142857,0.40031932275926807
11.885714285714286,0.3542495835783955
12.0,0.31111548794086635
12.114285714285714,0.27174651941828964
12.228571428571428,0.23657981248198073
12.342857142857142,0.20575500343648334
12.457142857142857,0.17920166150087824
12.571428571428571,0.1567046742087137
12.685714285714285,0.13794611219386352
12.799999999999999,0.12253202267622973
12.914285714285715,0.11001571162347765
13.028571428571428,0.09992525305430999
13.142857142857142,0.09179563895909189
13.257142857142856,0.08519994859367519
13.371428571428572,0.07977241147457992
13.485714285714286,0.07521927746459939
13.6,0.07131830037100052
13.714285714285714,0.06791110169314202
13.828571428571427,0.06489295982904313
13.942857142857143,0.062202286740673726
14.057142857142857,0.05980941254753316
14.17142857142857,0.05770341881424893
14.285714285714285,0.0558772731625367
14.4,0.054314233155346434
14.514285714285714,0.05298024024444596
14.628571428571428,0.051826103466481206
14.742857142857142,0.05079958095721784
14.857142857142856,0.04986271942724923
14.971428571428572,0.049006611693334576
15.085714285714285,0.048256050368872684
15.2,0.047660528381049665
15.314285714285713,0.04727385790187947
15.428571428571429,0.04712963938111464
15.542857142857143,0.04722177373341811
15.657142857142857,0.047497567217652165
15.77142857142857,0.04786663596270724
15.885714285714284,0.04822347780597183
16.0,0.04847698028383276
16.114285714285714,0.048577631743115454
16.228571428571428,0.048533602493573885
16.34285714285714,0.04841021468367518
16.457142857142856,0.04831268653040815
16.57142857142857,0.04835757652066221
16.685714285714287,0.04864197735786253
16.8,0.049219881973695076
16.914285714285715,0.0500923527244313
17.02857142857143,0.05121349256314556
17.142857142857142,0.052509407301551445
17.257142857142856,0.05390353887192923
17.37142857142857,0.055339547710311944
17.485714285714284,0.05679289401759779
17.599999999999998,0.05826521154268516
17.714285714285715,0.05976182400762428
17.82857142857143,0.06126092647167802
17.942857142857143,0.06268942333605902
18.057142857142857,0.06392079739540515
18.17142857142857,0.06480249579620788
18.285714285714285,0.06520656560178156
18.4,0.06508427187426574
18.514285714285712,0.0645005001654098
18.628571428571426,0.06363035193216421
18.742857142857144,0.06271569362391691
18.857142857142858,0.06199598194351903
18.97142857142857,0.06163762709060669
19.085714285714285,0.061685667978006786
19.2,0.06205226468984324
19.314285714285713,0.06254360703086896
19.428571428571427,0.0629155142273855
19.54285714285714,0.06294120608863117
19.657142857142855,0.06247299072633981
19.771428571428572,0.06148228642462033
19.885714285714286,0.060068603622222536
20.0,0.05843664913556769
20.114285714285714,0.056849466701242087
20.228571428571428,0.05557164359437694
20.34285714285714,0.05481778177811738
20.457142857142856,0.054717400295931355
20.57142857142857,0.05530042063918452
20.685714285714287,0.05650085747604183
20.8,0.058172954842982336
20.914285714285715,0.06011419175024803
21.02857142857143,0.06209165494000661
21.142857142857142,0.06386995312405176
21.257142857142856,0.06523888271981909
21.37142857142857,0.06603791345408239
21.485714285714284,0.06617375409647669
21.599999999999998,0.06562799816500747
21.714285714285715,0.06445408575833317
21.82857142857143,0.06276532659249245
21.942857142857143,0.06071711177886251
22.057142857142857,0.05848620745593586
22.17142857142857,0.05624891859557041
22.285714285714285,0.054159262742774154
22.4,0.05232889891412827
22.514285714285712,0.05081199521669254
22.628571428571426,0.0495991161742476
22.742857142857144,0.04862326471094845
22.857142857142858,0.04777820654041496
22.97142857142857,0.04694526763077096
23.085714285714285,0.04602176055944703
23.2,0.04494352329752484
23.314285714285713,0.043696057090737574
23.428571428571427,0.042312536969011216
23.54285714285714,0.04086100269877831
23.657142857142855,0.039425879585357766
23.771428571428572,0.03808980502788327
23.885714285714286,0.03692050858714655
24.0,0.035964850862092335
24.114285714285714,0.03524914618330391
24.228571428571428,0.03478274857044313
24.34285714285714,0.03456140959449507
24.457142857142856,0.03456821967024114
24.57142857142857,0.034772236305917026
24.685714285714283,0.03512685499148841
24.8,0.03557046498125771
24.914285714285715,0.03603074950217444
25.02857142857143,0.03643201074639296
25.142857142857142,0.03670347607343432
25.257142857142856,0.03678654295458517
25.37142857142857,0.03664012769315234
25.485714285714284,0.036244611176631095
25.599999999999998,0.035605242376798116
25.71428571428571,0.034755013463621164
25.82857142857143,0.03375567354484425
25.942857142857143,0.03269478580192924
26.057142857142857,0.03167721008975089
26.17142857142857,0.03081096063899507
26.285714285714285,0.030189335298948378
26.4,0.029872789881244782
26.514285714285712,0.02987478132418706
26.628571428571426,0.030155533283107556
26.742857142857144,0.030626309120231218
26.857142857142858,0.031164384450497535
26.97142857142857,0.031635953052127644
27.085714285714285,0.03192162711867491
27.2,0.031938135233469014
27.314285714285713,0.03165093545719103
27.428571428571427,0.031075406254712137
27.54285714285714,0.030267788313653593
27.657142857142855,0.029309634359598505
27.771428571428572,0.028290329570092455
27.885714285714286,0.02729146833348343
28.0,0.026375437278030586
28.114285714285714,0.025579341628190047
28.228571428571428,0.02491466011813027
28.34285714285714,0.02437233416133143
28.457142857142856,0.023931944912753335
28.57142857142857,0.02357230915182018
28.685714285714283,0.023279971572219532
28.8,0.023052533474259323
28.914285714285715,0.022895750403053024
29.02857142857143,0.022816094691504047
29.142857142857142,0.02281263455943835
29.257142857142856,0.0228724476718588
29.37142857142857,0.02297209462295677
29.485714285714284,0.02308473034495839
29.599999999999998,0.02318966075464985
29.71428571428571,0.02327988085280891
29.82857142857143,0.02336395060712796
29.942857142857143,0.02346109385606484
30.057142857142857,0.023591478888457952
30.17142857142857,0.023765836757492012
30.285714285714285,0.023978870538090738
30.4,0.024209179837106853
30.514285714285712,0.024425530244513754
30.628571428571426,0.024596659165270214
30.74285714285714,0.02470066224846252
30.857142857142858,0.024730737610637255
30.97142857142857,0.024696055077002354
31.085714285714285,0.024618562447112045
31.2,0.024527615453913427
31.314285714285713,0.024454164866795608
31.428571428571427,0.02442540886234141
31.54285714285714,0.02446018790177145
31.657142857142855,0.024565460287322448
31.77142857142857,0.024734715183308213
31.885714285714286,0.024949412114004133
32.0,0.025183868376435124
32.114285714285714,0.025412535527999817
32.22857142857143,0.025617145394770682
32.34285714285714,0.02579079618526221
32.457142857142856,0.025937172933763207
32.57142857142857,0.02606529240634391
32.68571428571428,0.026182276676214294
32.8,0.02628755763578369
32.91428571428571,0.026371154134217614
33.028571428571425,0.026416693630341694
33.14285714285714,0.026407680279963062
33.25714285714285,0.026334131706704914
33.371428571428574,0.02619663494310847
33.48571428571429,0.026006017356242257
33.6,0.025778637657624635
33.714285714285715,0.025529037994101982
33.82857142857143,0.025262720005713217
33.94285714285714,0.024971782914073266
34.05714285714286,0.02463515909159716
34.17142857142857,0.024223616205382954
34.285714285714285,0.02370813552767454
34.4,0.023069220215825664
34.51428571428571,0.022304402483727656
34.628571428571426,0.021431718146546697
34.74285714285714,0.020488029347265423
34.857142857142854,0.019522518167675976
34.97142857142857,0.018587083957610502
35.08571428571428,0.01772634595001148
35.199999999999996,0.016970117311125923
35.31428571428572,0.016330429563665528
35.42857142857143,0.015803659696106857
35.542857142857144,0.015376602348378999
35.65714285714286,0.015034106101332632
35.77142857142857,0.014765606897377614
35.885714285714286,0.014568554365889615
36.0,0.014447954674976634
36.114285714285714,0.014412532076813919
36.22857142857143,0.014468968192272431
36.34285714285714,0.014616169551489599
36.457142857142856,0.014841518066560984
36.57142857142857,0.015120549475383094
36.68571428571428,0.015420475786946787
36.8,0.015706599085963335
36.91428571428571,0.015949427370355505
37.028571428571425,0.01612982177314934
37.14285714285714,0.01624018680889512
37.25714285714285,0.01628140964055401
37.371428571428574,0.016257213450042166
37.48571428571429,0.01616882852295403
37.6,0.016012730588748997
37.714285714285715,0.015782687322574755
37.82857142857143,0.015475231759540922
37.94285714285714,0.015095990234275712
38.05714285714286,0.014663833044458337
38.17142857142857,0.01421075636451167
38.285714285714285,0.01377723704149171
38.4,0.013404639561359726
38.51428571428571,0.013127282503911817
38.628571428571426,0.012966630850802787
38.74285714285714,0.012928989203065634
38.857142857142854,0.013006648621679572
38.97142857142857,0.013181347854089743
39.08571428571428,0.013428524604577163
39.199999999999996,0.013721124244407579
39.31428571428571,0.014032377357044924
39.42857142857143,0.014337564065958014
39.542857142857144,0.01461509257509098
39.65714285714286,0.014847184589147997
39.77142857142857,0.015020225863401356
39.885714285714286,0.015124653454156617
40.0,0.015154323561060414
40.114285714285714,0.01510565745681669
40.22857142857143,0.014977259818545668
40.34285714285714,0.014770758670915773
40.457142857142856,0.014493079273238025
40.57142857142857,0.014159383098786203
40.68571428571428,0.013795026053763874
40.8,0.013434746372211776
40.91428571428571,0.013118152485777579
41.028571428571425,0.012882126982062592
41.14285714285714,0.012752250447349685
41.25714285714285,0.012736041909978697
41.371428571428574,0.012820380972956052
41.48571428571429,0.01297412104545774
41.6,0.013155189464643184
41.714285714285715,0.013320043776483511
41.82857142857143,0.013432698972059422
41.94285714285714,0.013470851749011466
42.05714285714286,0.013427764733385746
42.17142857142857,0.013310099528352829
42.285714285714285,0.013133211095751239
42.4,0.01291602709832417
42.51428571428571,0.01267733825314204
42.628571428571426,0.01243432867360732
42.74285714285714,0.01220297731310594
42.857142857142854,0.01199909804518515
42.97142857142857,0.011838588676609158
43.08571428571428,0.0117359486416868
43.199999999999996,0.011701049083138189
43.31428571428571,0.011735102628518802
43.42857142857143,0.01182739881781457
43.542857142857144,0.011954400744465228
43.65714285714286,0.0120822120267533
43.77142857142857,0.012172410670112408
43.885714285714286,0.012190138286577997
44.0,0.012112484107129054
44.114285714285714,0.011934886463416063
44.22857142857143,0.011673616994825792
44.34285714285714,0.011363366646433486
44.457142857142856,0.011050288696778529
44.57142857142857,0.010782192492372902
44.68571428571428,0.01059848286027959
44.8,0.010522559172353294
44.91428571428571,0.01055863162755356
45.028571428571425,0.010693513044725598
45.14285714285714,0.010902393397672135
45.25714285714285,0.01115646201234307
45.37142857142857,0.011429911272012042
45.48571428571429,0.011704414010268572
45.6,0.01197033375294132
45.714285714285715,0.012225180064531016
45.82857142857143,0.01247062850527848
45.94285714285714,0.012709498661366097
46.05714285714286,0.012943527807062606
46.17142857142857,0.013172023302016944
46.285714285714285,0.01339101832578593
46.4,0.013592633691507356
46.51428571428571,0.01376479556534831
46.628571428571426,0.013891831460886243
46.74285714285714,0.013956384017810814
46.857142857142854,0.01394252085104835
46.97142857142857,0.013839236603955495
47.08571428571428,0.013643207840321983
47.199999999999996,0.013359902048469739
47.31428571428571,0.013002798410849834
47.42857142857143,0.01259114957562057
47.542857142857144,0.012147066088543556
47.65714285714286,0.01169267675384842
47.77142857142857,0.011247884883625096
47.885714285714286,0.010829015989037915
48.0,0.010448521461875495
48.114285714285714,0.010115812005210402
48.22857142857143,0.009839165119329652
48.34285714285714,0.009628476886014951
48.457142857142856,0.009498471831342649
48.57142857142857,0.009471890260010149
48.68571428571428,0.009582092166364011
48.8,0.00987432532870424
48.91428571428571,0.010404520673502643
49.028571428571425,0.011234033742825503
49.14285714285714,0.012418697703150761
49.25714285714285,0.013991538888433663
49.37142857142857,0.015940953849422686
49.48571428571429,0.018189675754669413
49.6,0.020582959938501514
49.714285714285715,0.02289487145259024
49.82857142857143,0.024857666222317436
49.94285714285714,0.026211322466121095
50.05714285714286,0.026761208743638947
50.17142857142857,0.026426135532550372
50.285714285714285,0.02526022219241305
50.4,0.02344047399069131
50.51428571428571,0.021224200105791412
50.628571428571426,0.01889081163795278
50.74285714285714,0.016686526768836266
50.857142857142854,0.014786941221074133
50.97142857142857,0.013283883600734282
51.08571428571428,0.012193913884860961
51.199999999999996,0.011479967860122042
51.31428571428571,0.011076368489514304
51.42857142857142,0.010909746636643083
51.542857142857144,0.01091224942393747
51.65714285714286,0.01102691147571491
51.77142857142857,0.011207291510759748
51.885714285714286,0.011414338976706044
52.0,0.011613251258001268
52.114285714285714,0.011772170362992433
52.22857142857143,0.01186330133861751
52.34285714285714,0.01186581098489955
52.457142857142856,0.01176909201960707
52.57142857142857,0.011574905699481412
52.68571428571428,0.011297486524370185
52.8,0.010961555061896784
52.91428571428571,0.010598895513490511
53.028571428571425,0.010244419171196709
53.14285714285714,0.009932433084417762
53.25714285714285,0.009693376348143542
53.37142857142857,0.009550877209387012
53.48571428571429,0.009518873917032744
53.6,0.009598827755916963
53.714285714285715,0.009777620850337995
53.82857142857143,0.010027248481157911
53.94285714285714,0.010307470731436926
54.05714285714286,0.010571911923458433
54.17142857142857,0.010776804505140146
54.285714285714285,0.010890223197979887
54.4,0.010898997491887275
54.51428571428571,0.010811024462040535
54.628571428571426,0.010652306302938983
54.74285714285714,0.01045995892015271
54.857142857142854,0.010273714940352079
54.97142857142857,0.010128475354120321
55.08571428571428,0.010049374960918279
