Frequency,PSD
6.057142857142857,0.335699315656215
6.171428571428571,0.3401138241579349
6.285714285714286,0.34923041070458377
6.3999999999999995,0.36339773907303136
6.514285714285714,0.3826182532206227
6.628571428571428,0.40615492042802576
6.742857142857143,0.43253649604674865
6.857142857142857,0.46029742559266773
6.9714285714285715,0.489287480387272
7.085714285714285,0.5217049246174084
7.2,0.5618512270595146
7.314285714285714,0.6144102082257811
7.428571428571428,0.6823603047196067
7.542857142857143,0.7663072466705735
7.657142857142857,0.8662353794976878
7.771428571428571,0.9847082806207713
7.885714285714285,1.1287937875813814
8.0,1.3079808173106167
8.114285714285714,1.5275863322746497
8.228571428571428,1.7805087299014506
8.342857142857143,2.042425987761371
8.457142857142857,2.2746660900927136
8.571428571428571,2.4349188874091734
8.685714285714285,2.4912072506640697
8.799999999999999,2.4325106777545757
8.914285714285715,2.271474443267911
9.028571428571428,2.03884776643346
9.142857142857142,1.772776478596174
9.257142857142856,1.5075889458550664
9.371428571428572,1.2664426230021726
9.485714285714286,1.0601546636651105
9.6,0.8910595646620665
9.714285714285714,0.7579304491119501
9.828571428571427,0.6583775406457465
9.942857142857143,0.5883660686461571
10.057142857142857,0.5412590458579226
10.17142857142857,0.5085480846231714
10.285714285714285,0.4821316910212483
10.4,0.4564076017919078
10.514285714285714,0.42885701011238087
10.628571428571428,0.399208157349848
10.742857142857142,0.36815592072893966
10.857142857142858,0.3365190414774476
10.971428571428572,0.3051026385068002
11.085714285714285,0.27495388126625153
11.2,0.24745052623550462
11.314285714285713,0.2238689145810058
11.428571428571429,0.20463133480801748
11.542857142857143,0.18887905033162533
11.657142857142857,0.17486624645457366
11.77142857142857,0.16097502866740615
11.885714285714286,0.1465829817782291
12.0,0.13215890867961713
12.114285714285714,0.11865279767434694
12.228571428571428,0.10677533667847172
12.342857142857142,0.09668520907111647
12.457142857142857,0.08813645591779345
12.571428571428571,0.08079364696773869
12.685714285714285,0.07443993658013108
12.799999999999999,0.06902145357806189
12.914285714285715,0.06461587606332032
13.028571428571428,0.06138844367203335
13.142857142857142,0.059515891079844854
13.257142857142856,0.05905220446319182
13.371428571428572,0.05978601451569705
13.485714285714286,0.06119976088976281
13.6,0.0626067057217788
13.714285714285714,0.06342585078225951
13.828571428571427,0.0634403417007508
13.942857142857143,0.06286579374056836
14.057142857142857,0.06216747365532737
14.17142857142857,0.06174184139152189
14.285714285714285,0.061679919486638896
14.4,0.061765747647372235
14.514285714285714,0.061682738364548156
14.628571428571428,0.06125457719144996
14.742857142857142,0.060547066236596433
14.857142857142856,0.05978467263860544
14.971428571428572,0.059177108969831596
15.085714285714285,0.05879984259102229
15.2,0.058602408320922256
15.314285714285713,0.058498404136671615
15.428571428571429,0.05843099056515231
15.542857142857143,0.05836199318816908
15.657142857142857,0.058239137120122866
15.77142857142857,0.05803193137512264
15.885714285714284,0.05784292497020096
16.0,0.05798465462271489
16.114285714285714,0.058898770553044086
16.228571428571428,0.06091773074725229
16.34285714285714,0.06402131882772845
16.457142857142856,0.06777213325296351
16.57142857142857,0.07148655511552693
16.685714285714287,0.07452015709042964
16.8,0.07647599258310624
16.914285714285715,0.07723590108319152
17.02857142857143,0.07686972525794751
17.142857142857142,0.07554581618621245
17.257142857142856,0.07350497180509255
17.37142857142857,0.07106266017091732
17.485714285714284,0.06857669682155959
17.599999999999998,0.06636249511523197
17.714285714285715,0.06458889510853492
17.82857142857143,0.06320826329123039
17.942857142857143,0.06197263881993525
18.057142857142857,0.060557435599215545
18.17142857142857,0.058742889393598854
18.285714285714285,0.056537502166073395
18.4,0.054153177524300995
18.514285714285712,0.05186221187243914
18.628571428571426,0.04986245752941701
18.742857142857144,0.0482428191394172
18.857142857142858,0.04702304413594223
18.97142857142857,0.0461806169578777
19.085714285714285,0.04563144167908807
19.2,0.04521454808295186
19.314285714285713,0.044736788937097115
19.428571428571427,0.04406153740001217
19.54285714285714,0.04316763297663191
19.657142857142855,0.042128187306820025
19.771428571428572,0.04103519631068345
19.885714285714286,0.03994381289538976
20.0,0.03888463105818139
20.114285714285714,0.037924142782799514
20.228571428571428,0.037209105088364045
20.34285714285714,0.036945517291425534
20.457142857142856,0.037315915067186234
20.57142857142857,0.03838196249216737
20.685714285714287,0.04002580903339842
20.8,0.04196128661508082
20.914285714285715,0.04381375213497382
21.02857142857143,0.04523520013494345
21.142857142857142,0.046000123445733836
21.257142857142856,0.046037789143211015
21.37142857142857,0.04540163052890573
21.485714285714284,0.044219305671804626
21.599999999999998,0.04266361775972074
21.714285714285715,0.040941937577047983
21.82857142857143,0.03927318543413647
21.942857142857143,0.037837815100781935
22.057142857142857,0.0367217231689828
22.17142857142857,0.035889103760937964
22.285714285714285,0.035204493806989895
22.4,0.03449793348806066
22.514285714285712,0.0336431501455071
22.628571428571426,0.03260700347965288
22.742857142857144,0.031442627650766324
22.857142857142858,0.030238354151360176
22.97142857142857,0.029068488375050022
23.085714285714285,0.027983630331257395
23.2,0.027032273804614534
23.314285714285713,0.026272049915007728
23.428571428571427,0.025746524606983498
23.54285714285714,0.0254490643205201
23.657142857142855,0.02531307508027572
23.771428571428572,0.02524075047096016
23.885714285714286,0.025148717055006986
24.0,0.025004369380371982
24.114285714285714,0.024840323614139636
24.228571428571428,0.02473956964236109
24.34285714285714,0.024785417926505203
24.457142857142856,0.024990674913505078
24.57142857142857,0.025250963395136578
24.685714285714283,0.02536791084510687
24.8,0.02514284105529112
24.914285714285715,0.024487144612896725
25.02857142857143,0.023480858783818156
25.142857142857142,0.022344664412295823
25.257142857142856,0.021341341567564676
25.37142857142857,0.020659136875804437
25.485714285714284,0.020338053759256763
25.599999999999998,0.02027675716219667
25.71428571428571,0.020309132351525025
25.82857142857143,0.020294942827714345
25.942857142857143,0.020166486733668235
26.057142857142857,0.019917834035094367
26.17142857142857,0.01957275448026353
26.285714285714285,0.019173920871479233
26.4,0.018798430090014848
26.514285714285712,0.018567250416501507
26.628571428571426,0.018616751304188984
26.742857142857144,0.01903447640604366
26.857142857142858,0.019796029957857723
26.97142857142857,0.020748301158111222
27.085714285714285,0.02166038114314314
27.2,0.02232123446403117
27.314285714285713,0.02263023757307608
27.428571428571427,0.022629145812019937
27.54285714285714,0.022462126351503416
27.657142857142855,0.02229363974622066
27.771428571428572,0.02222952917560554
27.885714285714286,0.022271895000935366
28.0,0.02231686519823511
28.114285714285714,0.02219386453648099
28.228571428571428,0.02173839690334956
28.34285714285714,0.020874556283375284
28.457142857142856,0.01966732686397106
28.57142857142857,0.018312898439224796
28.685714285714283,0.01707168021257365
28.8,0.016182884046828588
28.914285714285715,0.01580063870856368
29.02857142857143,0.015965425549213985
29.142857142857142,0.0166027589971901
29.257142857142856,0.017540500574696867
29.37142857142857,0.018544922729441568
29.485714285714284,0.01937532471539853
29.599999999999998,0.019846333500286025
29.71428571428571,0.019878288539993783
29.82857142857143,0.01951752075498385
29.942857142857143,0.0189172324872295
30.057142857142857,0.01828134966139013
30.17142857142857,0.017788410943018182
30.285714285714285,0.01752788028923848
30.4,0.01748319615940893
30.514285714285712,0.017570989997041413
30.628571428571426,0.017706155634220594
30.74285714285714,0.01784380161232139
30.857142857142858,0.01797329448634001
30.97142857142857,0.01808426675895414
31.085714285714285,0.01814508779835898
31.2,0.018113605060014467
31.314285714285713,0.0179641529228647
31.428571428571427,0.017700945211201892
31.54285714285714,0.017345666928143846
31.657142857142855,0.016914571448647296
31.77142857142857,0.016409837953676114
31.885714285714286,0.015833574189598958
32.0,0.01520882502233771
32.114285714285714,0.014585791407192888
32.22857142857143,0.01402854691692758
32.34285714285714,0.013596682510741954
32.457142857142856,0.013335704459088549
32.57142857142857,0.013274132385265884
32.68571428571428,0.013416894364006598
32.8,0.013734101550994022
32.91428571428571,0.014157895362144018
33.028571428571425,0.014599387771038013
33.14285714285714,0.014981508681876797
33.25714285714285,0.015267942237920213
33.371428571428574,0.015469320433183331
33.48571428571429,0.01562485186459798
33.6,0.01577373537247536
33.714285714285715,0.015931821104529183
33.82857142857143,0.016079819400199813
33.94285714285714,0.016164610580494097
34.05714285714286,0.01611677715915228
34.17142857142857,0.015883262496230253
34.285714285714285,0.015460663125208801
34.4,0.014906903991639645
34.51428571428571,0.014320007616494906
34.628571428571426,0.013794897999072096
34.74285714285714,0.013383624713264826
34.857142857142854,0.013081144558443784
34.97142857142857,0.012842562193233837
35.08571428571428,0.012618936753972333
35.199999999999996,0.012387347376068879
35.31428571428572,0.012155102815291684
35.42857142857143,0.0119382843885736
35.542857142857144,0.011736840315247625
35.65714285714286,0.011531305694588004
35.77142857142857,0.011305079947018393
35.885714285714286,0.011071172499306291
36.0,0.01087775778609446
36.114285714285714,0.01078511214197527
36.22857142857143,0.01082854084831189
36.34285714285714,0.010990293101545161
36.457142857142856,0.011196628020510295
36.57142857142857,0.01134218446905345
36.68571428571428,0.011330084220584659
36.8,0.011108631202223475
36.91428571428571,0.010688780985214141
37.028571428571425,0.010138687341763328
37.14285714285714,0.009562240533223493
37.25714285714285,0.009070011441927778
37.371428571428574,0.00874812407210091
37.48571428571429,0.008632222923507581
37.6,0.008698309415840946
37.714285714285715,0.008879131201758558
37.82857142857143,0.009100356329690269
37.94285714285714,0.00931609406498135
38.05714285714286,0.009523012800808528
38.17142857142857,0.009747791776552418
38.285714285714285,0.010019974456696576
38.4,0.010346974667231564
38.51428571428571,0.010700286048111966
38.628571428571426,0.011014560304683221
38.74285714285714,0.011201719772220226
38.857142857142854,0.011182795666090086
38.97142857142857,0.010929611300138815
39.08571428571428,0.010492232565520253
39.199999999999996,0.009987007101066836
39.31428571428571,0.009544319138258116
39.42857142857143,0.009246998934185836
39.542857142857144,0.009099611098083105
39.65714285714286,0.009045872314091841
39.77142857142857,0.009016786856924613
39.885714285714286,0.008974563937332458
40.0,0.008927241683285264
40.114285714285714,0.008912862585308318
40.22857142857143,0.008969447646410295
40.34285714285714,0.009108744038991805
40.457142857142856,0.009304194377099458
40.57142857142857,0.009496884847794042
40.68571428571428,0.009618549687752201
40.8,0.009623308390768909
40.91428571428571,0.009512059862104849
41.028571428571425,0.009335553121396788
41.14285714285714,0.009176254268815945
41.25714285714285,0.009121588888909215
41.371428571428574,0.0092389631852796
41.48571428571429,0.009552689264853368
41.6,0.010022500911349536
41.714285714285715,0.01053595042944845
41.82857142857143,0.01093382089680207
41.94285714285714,0.011071606536380677
42.05714285714286,0.010889853023308266
42.17142857142857,0.010449881016496586
42.285714285714285,0.009907421280996769
42.4,0.009435247802588574
42.51428571428571,0.009139193352656567
42.628571428571426,0.009016952480399019
42.74285714285714,0.008982141087377347
42.857142857142854,0.008933904127074444
42.97142857142857,0.00882320870863735
43.08571428571428,0.008672867104954114
43.199999999999996,0.008545734905085067
43.31428571428571,0.00849384307316399
43.42857142857143,0.008528807889880217
43.542857142857144,0.008628443459150656
43.65714285714286,0.00876369836827333
43.77142857142857,0.008920665165934543
43.885714285714286,0.009105003662368001
44.0,0.009332019767963409
44.114285714285714,0.009611400242010088
44.22857142857143,0.009933203611030773
44.34285714285714,0.010259158232588888
44.457142857142856,0.010523686894978611
44.57142857142857,0.010649107379653085
44.68571428571428,0.01057450571185322
44.8,0.010287941719341663
44.91428571428571,0.009844379376421793
45.028571428571425,0.009355713538039465
45.14285714285714,0.008954030146299771
45.25714285714285,0.008744310972560785
45.37142857142857,0.00876830464399551
45.48571428571429,0.008995577671064103
45.6,0.009344628942496273
45.714285714285715,0.009721894722153181
45.82857142857143,0.010057255511695916
45.94285714285714,0.01031848053148242
46.05714285714286,0.010502560191712754
46.17142857142857,0.010617456632375791
46.285714285714285,0.010671226713301587
46.4,0.010674731204816608
46.51428571428571,0.010648959400923773
46.628571428571426,0.010622197974033451
46.74285714285714,0.010612409762162649
46.857142857142854,0.010607869205711513
46.97142857142857,0.010566210478214523
47.08571428571428,0.010438692003626676
47.199999999999996,0.01020392804100359
47.31428571428571,0.009886049371241535
47.42857142857143,0.009545327419875951
47.542857142857144,0.00925034235674726
47.65714285714286,0.00904953081600023
47.77142857142857,0.008953438320564276
47.885714285714286,0.008930808398614178
48.0,0.008920597507235733
48.114285714285714,0.008861263067473622
48.22857142857143,0.008729201097221145
48.34285714285714,0.008565290882471117
48.457142857142856,0.008467537801006111
48.57142857142857,0.008545898171262091
48.68571428571428,0.008861818832977899
48.8,0.009389642604097626
48.91428571428571,0.010026534960460617
49.028571428571425,0.010646764254277229
49.14285714285714,0.011166004265372157
49.25714285714285,0.011574112781093875
49.37142857142857,0.0119166105179501
49.48571428571429,0.012240426910205056
49.6,0.012543439534269162
49.714285714285715,0.012763564851185766
49.82857142857143,0.012814370017587944
49.94285714285714,0.012640310793512067
50.05714285714286,0.012250950158260446
50.17142857142857,0.011711990777056253
50.285714285714285,0.011107153439595811
50.4,0.010506265537346892
50.51428571428571,0.009961571060641543
50.628571428571426,0.009521684113499887
50.74285714285714,0.009236032108482933
50.857142857142854,0.009138134807281284
50.97142857142857,0.009223748155788835
51.08571428571428,0.009448379017318006
51.199999999999996,0.009749845160903168
51.31428571428571,0.010076550133971216
51.42857142857142,0.010396813301260764
51.542857142857144,0.010683899362263797
51.65714285714286,0.0108961338958023
51.77142857142857,0.010977016254705966
51.885714285714286,0.01088027984692791
52.0,0.010599140960455677
52.114285714285714,0.01017410378720415
52.22857142857143,0.009674190004240076
52.34285714285714,0.009169620638084557
52.457142857142856,0.008716339203621226
52.57142857142857,0.008356008426090057
52.68571428571428,0.008120439256432152
52.8,0.008031114778019221
52.91428571428571,0.008096018722040996
53.028571428571425,0.008311049191486241
53.14285714285714,0.008665594728263797
53.25714285714285,0.009142401420231176
53.37142857142857,0.009706209752476994
53.48571428571429,0.01029280817079415
53.6,0.01081866267612197
53.714285714285715,0.011214072643136789
53.82857142857143,0.011454303406542153
53.94285714285714,0.011558248600060663
54.05714285714286,0.011554503986448817
54.17142857142857,0.011448638479608789
54.285714285714285,0.01122393980677032
54.4,0.01087268462921312
54.51428571428571,0.010425415309976264
54.628571428571426,0.009950735232060307
54.74285714285714,0.00952685789011614
54.857142857142854,0.009208201584180488
54.97142857142857,0.009010195465264038
55.08571428571428,0.008919574539718094
