Frequency,PSD
6.0,0.41634198470030215
6.08,0.4167092448183274
6.16,0.41744256097562393
6.24,0.4185395571910936
6.32,0.41999674844908025
6.4,0.4218096313646257
6.48,0.42397279849146163
6.5600000000000005,0.42648007106885755
6.640000000000001,0.429324644217856
6.72,0.43249923811269747
6.8,0.4359962484902024
6.88,0.4398078900219232
6.96,0.4439263265470582
7.04,0.4483437829181663
7.12,0.4530526342020929
7.2,0.45804546914914235
7.28,0.4633151261301447
7.36,0.468854701074975
7.44,0.47465752825808555
7.5200000000000005,0.4807171360006559
7.6000000000000005,0.4870271804358512
7.68,0.4935813613637724
7.76,0.500373324868485
7.84,0.50739655775703
7.92,0.5146442789998813
8.0,0.5221093332084922
8.08,0.5297840907962443
8.16,0.5376603588640382
8.24,0.5457293060703517
8.32,0.5539814038345561
8.4,0.5624063852327666
8.48,0.5709932219304065
8.56,0.5797301185069031
8.64,0.5886045226138514
8.72,0.5976031486114486
8.8,0.6067120116844256
8.88,0.6159164689749854
8.96,0.6252012640039386
9.040000000000001,0.6345505705902463
9.120000000000001,0.6439480326220047
9.200000000000001,0.6533767963681762
9.28,0.6628195325316534
9.36,0.6722584459053625
9.44,0.6816752712732694
9.52,0.6910512550625418
9.6,0.7003671231643082
9.68,0.7096030362599111
9.76,0.7187385348790167
9.84,0.727752477238828
9.92,0.7366229736361707
10.0,0.7453273217565204
10.08,0.7538419477009604
10.16,0.76214235779406
10.24,0.770203106309142
10.32,0.777997784125148
10.4,0.7854990330106953
10.48,0.7926785897217481
10.56,0.7995073634117769
10.64,0.8059555490053982
10.72,0.8119927782017599
10.8,0.8175883086805326
10.88,0.8227112509134191
10.96,0.8273308307727503
11.040000000000001,0.831416684913237
11.120000000000001,0.8349391847215055
11.200000000000001,0.8378697835189195
11.28,0.8401813807033773
11.36,0.8418486956601617
11.44,0.8428486435919497
11.52,0.8431607049409604
11.6,0.8427672798237216
11.68,0.8416540188866655
11.76,0.8398101222273842
11.84,0.8372285985128678
11.92,0.8339064771555229
12.0,0.8298449673650492
12.08,0.8250495590561442
12.16,0.8195300619276101
12.24,0.8133005804998101
12.32,0.8063794244607548
12.4,0.7987889552778659
12.48,0.7905553716312954
12.56,0.7817084377629802
12.64,0.7722811602618633
12.72,0.7623094200713816
12.8,0.7518315675670618
12.88,0.7408879893736615
12.96,0.7295206561453471
13.040000000000001,0.7177726608016524
13.120000000000001,0.7056877566902852
13.200000000000001,0.6933099048405401
13.280000000000001,0.6806828388947462
13.36,0.6678496554870049
13.44,0.6548524368149776
13.52,0.6417319109657034
13.6,0.628527154259918
13.68,0.6152753385236707
13.76,0.6020115248343548
13.84,0.588768503971705
13.92,0.5755766825797104
14.0,0.5624640129531409
14.08,0.5494559634347669
14.16,0.5365755256693727
14.24,0.523843254421319
14.32,0.511277335326678
14.4,0.49889367581214483
14.48,0.48670601445570005
14.56,0.4747260442657574
14.64,0.4629635456880389
14.72,0.4514265255808527
14.8,0.44012135889629495
14.88,0.4290529303339938
14.96,0.4182247737643351
15.040000000000001,0.40763920772243806
15.120000000000001,0.3972974657301377
15.200000000000001,0.3871998205944909
15.280000000000001,0.3773457021476598
15.36,0.36773380813057643
15.44,0.3583622080835988
15.52,0.34922844019870775
15.6,0.34032960112104044
15.68,0.33166242867720974
15.76,0.32322337746995433
15.84,0.3150086872296993
15.92,0.3070144437690847
16.0,0.29923663235998316
16.080000000000002,0.29167118335453746
16.16,0.28431400990938527
16.240000000000002,0.27716103774859774
16.32,0.27020822701513664
16.4,0.26345158640827054
16.48,0.2568871799776
16.56,0.2505111271327462
16.64,0.24431959661933342
16.72,0.23830879539373237
16.8,0.2324749534885109
16.88,0.2268143060859393
16.96,0.2213230740985574
17.04,0.21599744458638856
17.12,0.21083355231569373
17.2,0.20582746368313426
17.28,0.20097516409413196
17.36,0.19627254970049027
17.44,0.1917154241781039
17.52,0.18729950097127357
17.6,0.18302041115784123
17.68,0.17887371681201483
17.76,0.17485492947259682
17.84,0.17095953307603082
17.92,0.16718301049772477
18.0,0.16352087267126303
18.080000000000002,0.15996868913092852
18.16,0.15652211875343702
18.240000000000002,0.15317693946228106
18.32,0.14992907570217814
18.400000000000002,0.14677462258883045
18.48,0.1437098657850865
18.56,0.140731296341251
18.64,0.13783561995556898
18.72,0.1350197603506163
18.8,0.13228085671148465
18.88,0.12961625538122118
18.96,0.1270234962471731
19.04,0.12450029446874832
19.12,0.12204451838378977
19.2,0.11965416457999287
19.28,0.11732733122396563
19.36,0.11506219080002363
19.44,0.11285696342192988
19.52,0.11070989184395329
19.6,0.1086192192150226
19.68,0.10658317049555027
19.76,0.10459993829627319
19.84,0.10266767370917432
19.92,0.10078448249017799
20.0,0.09894842673045437
20.080000000000002,0.09715753192680451
20.16,0.09540979914060987
20.240000000000002,0.0937032217277747
20.32,0.09203580593681493
20.400000000000002,0.09040559451554578
20.48,0.08881069234442039
20.56,0.0872492930305504
20.64,0.0857197053535731
20.72,0.0842203784537768
20.8,0.08274992469376707
20.88,0.08130713920529087
20.96,0.07989101524914868
21.04,0.07850075466360595
21.12,0.07713577284960893
21.2,0.0757956979327961
21.28,0.07448036394572245
21.36,0.07318979808155585
21.44,0.07192420227551574
21.52,0.07068392956549942
21.6,0.069469455862324
21.68,0.06828134791700803
21.76,0.06712022840281841
21.84,0.06598673912952817
21.92,0.06488150347381066
22.0,0.0638050891412973
22.080000000000002,0.06275797237209008
22.16,0.06174050466301763
22.240000000000002,0.060752883008288516
22.32,0.05979512455796053
22.400000000000002,0.05886704646419414
22.48,0.057968251532699244
22.56,0.05709812012579771
22.64,0.05625580857928896
22.72,0.05544025420332236
22.8,0.05465018674342
22.88,0.05388414598742948
22.96,0.0531405050231491
23.04,0.0524174984850699
23.12,0.05171325498213861
23.2,0.05102583277613395
23.28,0.05035325768594738
23.36,0.04969356212978186
23.44,0.049044824187012385
23.52,0.04840520556531395
23.6,0.0477729873965093
23.68,0.04714660285534017
23.76,0.04652466569672045
23.84,0.04590599393570648
23.92,0.045289628046179725
24.0,0.0446748432240439
24.080000000000002,0.044061155442893574
24.16,0.04344832121857779
24.240000000000002,0.04283633118752506
24.32,0.04222539778594776
24.400000000000002,0.041615937487117644
24.48,0.041008548206437206
24.560000000000002,0.04040398261429337
24.64,0.03980311820091076
24.72,0.039206925012804934
24.8,0.038616432025366756
24.88,0.03803269312996233
24.96,0.037456753697367874
25.04,0.036889618633916064
25.12,0.03633222277500633
25.2,0.03578540436591951
25.28,0.035249882266157266
25.36,0.03472623738513986
25.44,0.034214898718708954
25.52,0.03371613421212573
25.6,0.033230046530753024
25.68,0.03275657367861932
25.76,0.0322954942715603
25.84,0.03184643714903597
25.92,0.031408894899946395
26.0,0.03098224078515453
26.080000000000002,0.030565748464672398
26.16,0.030158613881764402
26.240000000000002,0.02975997862011557
26.32,0.029368954033788565
26.400000000000002,0.028984645452548995
26.48,0.028606175786377204
26.560000000000002,0.0282327078914566
26.64,0.027863465113982102
26.72,0.027497749495990008
26.8,0.027134957206907007
26.88,0.02677459085339524
26.96,0.02641626841579639
27.04,0.02605972865952936
27.12,0.025704832971425607
27.2,0.025351563671584247
27.28,0.025000018948172817
27.36,0.024650404653218518
27.44,0.02430302327934897
27.52,0.023958260508621577
27.6,0.023616569783046302
27.68,0.023278455390779718
27.76,0.022944454591087605
27.84,0.022615119314473214
27.92,0.022290997971652432
28.0,0.021972617886736743
28.080000000000002,0.021660468836816462
28.16,0.02135498813350158
28.240000000000002,0.021056547623491576
28.32,0.020765442917059174
28.400000000000002,0.02048188507772017
28.48,0.020205994925941783
28.560000000000002,0.01993780002709104
28.64,0.019677234351718538
28.72,0.019424140517204997
28.8,0.019178274446305012
28.88,0.018939312212321802
28.96,0.018706858784486198
29.04,0.01848045834206522
29.12,0.018259605792935375
29.2,0.01804375911246283
29.28,0.017832352111792064
29.36,0.01762480725079965
29.44,0.017420548129390718
29.52,0.01721901132042005
29.6,0.0170196572469269
29.68,0.01682197985383673
29.76,0.01662551487786423
29.84,0.01642984657693323
29.92,0.016234612839785896
30.0,0.016039508655373125
30.080000000000002,0.01584428797795771
30.16,0.015648764075607623
30.240000000000002,0.01545280849516709
30.32,0.015256348814369793
30.400000000000002,0.015059365380392545
30.48,0.014861887253098663
30.560000000000002,0.014663987580189964
30.64,0.014465778630538866
30.72,0.014267406701724274
30.8,0.014069047099026764
30.88,0.013870899357231913
30.96,0.013673182844963147
31.04,0.013476132855681527
31.12,0.013279997251778818
31.2,0.013085033690183469
31.28,0.0128915074213998
31.36,0.012699689620538399
31.44,0.012509856180086414
31.52,0.012322286871025073
31.6,0.012137264762248391
31.68,0.011955075778496867
31.76,0.011776008274304002
31.84,0.011600352505488153
31.92,0.011428399889958717
32.0,0.011260441965205625
32.08,0.011096768969773982
32.160000000000004,0.010937667999114001
32.24,0.010783420711180953
32.32,0.010634300582813316
32.4,0.010490569743007588
32.480000000000004,0.010352475432681373
32.56,0.010220246161422189
32.64,0.010094087649321678
32.72,0.00997417865575062
32.8,0.00986066680650971
32.88,0.009753664536038674
32.96,0.009653245262406452
33.04,0.009559439909751794
33.12,0.00947223388615997
33.2,0.009391564615021417
33.28,0.009317319705291415
33.36,0.009249335831299494
33.44,0.009187398376440083
33.52,0.009131241877738658
33.6,0.009080551290506498
33.68,0.00903496407451372
33.76,0.008994073085775737
33.84,0.008957430241511724
33.92,0.00892455091041794
34.0,0.008894918966292563
34.08,0.008867992430499195
34.160000000000004,0.008843209617808153
34.24,0.008819995690953411
34.32,0.008797769521768355
34.4,0.008775950751069891
34.480000000000004,0.008753966935477728
34.56,0.00873126066710847
34.64,0.008707296551479825
34.72,0.008681567930005737
34.800000000000004,0.008653603236098673
34.88,0.008622971878117227
34.96,0.008589289548194518
35.04,0.00855222286336303
35.12,0.0085114932543642
35.2,0.008466880028118897
35.28,0.00841822254204369
35.36,0.008365421442200286
35.44,0.008308438932632637
35.52,0.008247298060056162
35.6,0.008182081016164184
35.68,0.00811292647895263
35.76,0.008040026034319116
35.84,0.007963619739335308
35.92,0.007883990908518095
36.0,0.007801460223573919
36.08,0.0077163792847828845
36.160000000000004,0.00762912373779742
36.24,0.007540086122442142
36.32,0.007449668599490481
36.4,0.0073582757167952005
36.480000000000004,0.007266307377083585
36.56,0.007174152165907653
36.64,0.007082181189510818
36.72,0.006990742558810258
36.800000000000004,0.00690015663758283
36.88,0.006810712150781084
36.96,0.006722663223371728
37.04,0.006636227392101186
37.12,0.006551584603134205
37.2,0.006468877178713731
37.28,0.006388210707024815
37.36,0.006309655782416862
37.44,0.006233250499155843
37.52,0.006159003581837375
37.6,0.00608689802026005
37.68,0.006016895066468454
37.76,0.005948938447093211
37.84,0.005882958645075961
37.92,0.005818877111129704
38.0,0.005756610276358734
38.08,0.005696073252688847
38.160000000000004,0.005637183126246191
38.24,0.0055798617696488405
38.32,0.005524038121278913
38.4,0.005469649901978445
38.480000000000004,0.005416644761307274
38.56,0.005364980865613803
38.64,0.005314626958049526
38.72,0.005265561935714966
38.800000000000004,0.0052177740010495195
38.88,0.005171259453216671
38.96,0.005126021190639892
39.04,0.005082066998188563
39.12,0.005039407692190058
39.2,0.004998055193832095
39.28,0.004958020597152306
39.36,0.004919312292166526
39.44,0.004881934197246819
39.52,0.004845884148039464
39.6,0.004811152483347026
39.68,0.0047777208617085214
39.76,0.004745561336019872
39.84,0.004714635707492375
39.92,0.004684895174437522
40.0,0.004656280285723329
40.08,0.004628721203051769
40.160000000000004,0.004602138270330563
40.24,0.004576442882187333
40.32,0.004551538637015897
40.4,0.00452732275283987
40.480000000000004,0.004503687716801426
40.56,0.00448052313141547
40.64,0.0044577177131285145
40.72,0.0044351613915668935
40.800000000000004,0.00441274745154679
40.88,0.004390374654910539
40.96,0.0043679492760100285
41.04,0.004345386983560908
41.12,0.004322614503038738
41.2,0.004299570997938033
41.28,0.0042762091152244485
41.36,0.004252495650086878
41.44,0.004228411797408487
41.52,0.004203952971847101
41.6,0.0041791281944649926
41.68,0.0041539590608349755
41.76,0.00412847832264997
41.84,0.004102728131277528
41.92,0.004076758006572125
42.0,0.004050622606783945
42.08,0.00402437938487678
42.160000000000004,0.003998086222415068
42.24,0.003971799133997101
42.32,0.003945570132808966
42.4,0.003919445341262757
42.480000000000004,0.0038934634201253553
42.56,0.0038676543754969815
42.64,0.0038420387861133826
42.72,0.0038166274745513257
42.800000000000004,0.00379142162592674
42.88,0.003766413337595487
42.96,0.0037415865641909516
43.04,0.0037169184050149517
43.12,0.0036923806661923533
43.2,0.0036679416188090033
43.28,0.003643567866994735
43.36,0.0036192262368874017
43.44,0.0035948855987176856
43.52,0.003570518539705251
43.6,0.003546102814732579
43.68,0.0035216225142612
43.76,0.003497068904013889
43.84,0.0034724409076939463
43.92,0.003447745221604329
44.0,0.0034229960675336533
44.08,0.0033982146068435755
44.160000000000004,0.003373428053522797
44.24,0.0033486685364375168
44.32,0.0033239717705322008
44.4,0.003299375603058501
44.480000000000004,0.0032749185037987596
44.56,0.003250638067776113
44.64,0.0032265695952925656
44.72,0.003202744807631634
44.800000000000004,0.0031791907479054252
44.88,0.003155928905857223
44.96,0.003132974593579082
45.04,0.003110336586706012
45.12,0.0030880170333339937
45.2,0.0030660116212536184
45.28,0.003044309983612414
45.36,0.0030228963142141328
45.44,0.0030017501566676798
45.52,0.002980847326670335
45.6,0.002960160923953948
45.68,0.0029396623897816852
45.76,0.0029193225672398404
45.84,0.0028991127246785764
45.92,0.002879005507258961
46.0,0.002858975787300086
46.08,0.002839001390637797
46.160000000000004,0.00281906368314681
46.24,0.0027991480085662844
46.32,0.002779243975490984
46.4,0.00275934559757416
46.480000000000004,0.002739451296360114
46.56,0.0027195637806080517
46.64,0.002699689819326244
46.72,0.0026798399279797866
46.800000000000004,0.0026600279884639658
46.88,0.00264027082352479
46.96,0.002620587745429878
47.04,0.0026010000970243946
47.12,0.0025815308009867477
47.2,0.00256220393029501
47.28,0.0025430443098552018
47.36,0.0025240771560419185
47.44,0.002505327757783473
47.52,0.002486821199883544
47.6,0.00246858212668467
47.68,0.0024506345419758775
47.76,0.002433001639367393
47.84,0.0024157056561726307
47.92,0.0023987677432096323
48.0,0.0023822078428193186
48.08,0.002366044567779467
48.160000000000004,0.0023502950746120445
48.24,0.002334974925967178
48.32,0.002320097938249034
48.4,0.002305676012356421
48.480000000000004,0.0022917189472251333
48.56,0.0022782342377342633
48.64,0.0022652268603673767
48.72,0.002252699051730443
48.800000000000004,0.002240650086545882
48.88,0.0022290760630119637
48.96,0.0022179697043715925
49.04,0.002207320186136657
49.120000000000005,0.002197112998632081
49.2,0.002187329854329359
49.28,0.00217794864883011
49.36,0.002168943483364192
49.44,0.0021602847552529628
49.52,0.0021519393210719592
49.6,0.0021438707352086465
49.68,0.002136039564279036
49.76,0.0021284037754606966
49.84,0.002120919194387172
49.92,0.0021135400258318927
50.0,0.0021062194281696277
50.08,0.0020989101305878693
50.160000000000004,0.0020915650803347147
50.24,0.002084138106003379
50.32,0.0020765845820467158
50.4,0.0020688620794038874
50.480000000000004,0.002060930987344157
50.56,0.0020527550923897173
50.64,0.002044302101419128
50.72,0.002035544097748875
50.800000000000004,0.0020264579210667495
50.88,0.0020170254644269296
50.96,0.0020072338840690547
51.04,0.0019970757204082305
51.120000000000005,0.0019865489311196756
51.2,0.0019756568396370883
51.28,0.0019644080045518736
51.36,0.001952816017210552
51.44,0.0019408992362400339
51.52,0.0019286804686860157
51.6,0.0019161866079641168
51.68,0.0019034482388626504
51.76,0.001890499219432077
51.84,0.0018773762488157129
51.92,0.0018641184289734571
52.0,0.0018507668269009646
52.08,0.0018373640424614902
52.160000000000004,0.0018239537854104326
52.24,0.001810580463703403
52.32,0.0017972887838358775
52.4,0.0017841233628389675
52.480000000000004,0.0017711283507265956
52.56,0.0017583470617116726
52.64,0.001745821612388022
52.72,0.0017335925653587814
52.800000000000004,0.0017216985774173724
52.88,0.0017101760523726686
52.96,0.0016990587998303146
53.04,0.001688377702695797
53.120000000000005,0.001678160397679423
53.2,0.0016684309746278552
53.28,0.0016592097019137815
53.36,0.0016505127863148577
53.44,0.0016423521766726745
53.52,0.001634735421076174
53.6,0.0016276655872604889
53.68,0.001621141255320523
53.76,0.001615156590678065
53.84,0.0016097015035115327
53.92,0.0016047618986006398
54.0,0.001600320016837001
54.08,0.001596354866568216
54.160000000000004,0.0015928427396534172
54.24,0.0015897578037109934
54.32,0.0015870727587234722
54.4,0.0015847595430866382
54.480000000000004,0.0015827900715091028
54.56,0.001581136985036064
54.64,0.0015797743920273745
54.72,0.001578678578234934
54.800000000000004,0.0015778286643095534
54.88,0.0015772071900943957
54.96,0.0015768006069588197
55.04,0.0015765996620988737
