Frequency,PSD
6.057142857142857,0.14194952653429027
6.171428571428571,0.14098239314096073
6.285714285714286,0.13916866610498094
6.3999999999999995,0.13673807868089968
6.514285714285714,0.13403922934006504
6.628571428571428,0.13157024479670523
6.742857142857143,0.12996912570227473
6.857142857142857,0.12990306410715655
6.9714285714285715,0.13187982899510098
7.085714285714285,0.13609199779985776
7.2,0.14240701120936697
7.314285714285714,0.15052081585602525
7.428571428571428,0.16016607533457866
7.542857142857143,0.1712003928848877
7.657142857142857,0.18346387736259642
7.771428571428571,0.19648051997797494
7.885714285714285,0.2092655881251129
8.0,0.22051424965367508
8.114285714285714,0.22920537436472738
8.228571428571428,0.23531001592665443
8.342857142857143,0.24015080334180958
8.457142857142857,0.24618404929859727
8.571428571428571,0.25638441525425154
8.685714285714285,0.27361438399537874
8.799999999999999,0.30018608290254273
8.914285714285715,0.33751995166482873
9.028571428571428,0.38574985360835434
9.142857142857142,0.4433674922729498
9.257142857142856,0.5072164387115875
9.371428571428572,0.5730518650574328
9.485714285714286,0.6365548754108474
9.6,0.6944167693936487
9.714285714285714,0.7450308184054882
9.828571428571427,0.7884068977235927
9.942857142857143,0.8251682658305524
10.057142857142857,0.8549721884464901
10.17142857142857,0.8752426246349936
10.285714285714285,0.8812109554182401
10.4,0.8675895553971846
10.514285714285714,0.8311130430284539
10.628571428571428,0.7725358094553209
10.742857142857142,0.6969986973851146
10.857142857142858,0.6126524640958898
10.971428571428572,0.5282876171607418
11.085714285714285,0.4510167315957911
11.2,0.38485352223466984
11.314285714285713,0.3305650614298018
11.428571428571429,0.286603847292451
11.542857142857143,0.25047139239733707
11.657142857142857,0.2198058582360135
11.77142857142857,0.1928667917326362
11.885714285714286,0.16856694481482376
12.0,0.14637748103796688
12.114285714285714,0.1262689890236885
12.228571428571428,0.10862920646598392
12.342857142857142,0.09405648369498812
12.457142857142857,0.08304732443157217
12.571428571428571,0.07571365962582444
12.685714285714285,0.07166979095520164
12.799999999999999,0.07013157320390749
12.914285714285715,0.07015539602934859
13.028571428571428,0.07088901683125157
13.142857142857142,0.071729938834944
13.257142857142856,0.07235464673875855
13.371428571428572,0.072646670445901
13.485714285714286,0.07258887242080218
13.6,0.07218972736979944
13.714285714285714,0.07148191572843507
13.828571428571427,0.07057387361408186
13.942857142857143,0.06968839338275853
14.057142857142857,0.06912943128332663
14.17142857142857,0.06917753394383475
14.285714285714285,0.06997179047764981
14.4,0.07144130985119872
14.514285714285714,0.07330922245035608
14.628571428571428,0.07515610906167182
14.742857142857142,0.07652438373977044
14.857142857142856,0.07704800530300247
14.971428571428572,0.07657364751182624
15.085714285714285,0.07521549082799521
15.2,0.07330202271510217
15.314285714285713,0.07123903221950738
15.428571428571429,0.0693723879544896
15.542857142857143,0.06792388133738494
15.657142857142857,0.06700031230994856
15.77142857142857,0.06661571818669569
15.885714285714284,0.06668092936684289
16.0,0.06698238213059873
16.114285714285714,0.06721214582396641
16.228571428571428,0.06707329367695467
16.34285714285714,0.06640895405454242
16.457142857142856,0.06527491886081452
16.57142857142857,0.06392427137692389
16.685714285714287,0.06273809237403434
16.8,0.062146686228063484
16.914285714285715,0.06254538265496873
17.02857142857143,0.06418513864142432
17.142857142857142,0.06705001018103394
17.257142857142856,0.0707846723810364
17.37142857142857,0.0747412918016816
17.485714285714284,0.07815797569100448
17.599999999999998,0.08040445584364428
17.714285714285715,0.0811925156494182
17.82857142857143,0.0806676993546873
17.942857142857143,0.07934942049208081
18.057142857142857,0.07793897556857066
18.17142857142857,0.07706374980386049
18.285714285714285,0.07706598510600304
18.4,0.07793982278887819
18.514285714285712,0.07943873445691221
18.628571428571426,0.08125968089783889
18.742857142857144,0.08316651007019026
18.857142857142858,0.0849946326614072
18.97142857142857,0.08660041073159858
19.085714285714285,0.08785232371977214
19.2,0.08868223895413362
19.314285714285713,0.08912811306102038
19.428571428571427,0.08930390801952716
19.54285714285714,0.08931080441733553
19.657142857142855,0.08916068481601916
19.771428571428572,0.0887643413728423
19.885714285714286,0.08797762553894034
20.0,0.08666477841619878
20.114285714285714,0.08475204450681892
20.228571428571428,0.08227324829940594
20.34285714285714,0.07941097927811912
20.457142857142856,0.07651140983908303
20.57142857142857,0.07403504211099637
20.685714285714287,0.07242922729260802
20.8,0.0719577457321392
20.914285714285715,0.07255857090996436
21.02857142857143,0.07379910627382665
21.142857142857142,0.07496460818633811
21.257142857142856,0.0752665666897784
21.37142857142857,0.07410505214387629
21.485714285714284,0.07127961108025853
21.599999999999998,0.06704844018889186
21.714285714285715,0.062004140422259754
21.82857142857143,0.056834336577140016
21.942857142857143,0.05209423523254205
22.057142857142857,0.048090171065532476
22.17142857142857,0.04488906453084669
22.285714285714285,0.04240211168360656
22.4,0.040482033337219045
22.514285714285712,0.039000479546892376
22.628571428571426,0.037894678177108156
22.742857142857144,0.037176527422910104
22.857142857142858,0.036898028544748114
22.97142857142857,0.03708019786443949
23.085714285714285,0.0376374655069323
23.2,0.03834840110812621
23.314285714285713,0.03891260369517023
23.428571428571427,0.039083526795983134
23.54285714285714,0.03880379318078292
23.657142857142855,0.0382460301306202
23.771428571428572,0.03771298161536969
23.885714285714286,0.03744978077862558
24.0,0.03749293950142137
24.114285714285714,0.037661080589292135
24.228571428571428,0.03768966250728661
24.34285714285714,0.0374063892643075
24.457142857142856,0.03682271472296122
24.57142857142857,0.03609446873036165
24.685714285714283,0.03540781791594973
24.8,0.03488532178891468
24.914285714285715,0.03456142337297516
25.02857142857143,0.03440840153950615
25.142857142857142,0.034369136577209275
25.257142857142856,0.034376361141958384
25.37142857142857,0.034365196384424326
25.485714285714284,0.034286858025100495
25.599999999999998,0.034119014828548955
25.71428571428571,0.033866490860599834
25.82857142857143,0.033555125101690376
25.942857142857143,0.033225444737240505
26.057142857142857,0.0329272478514784
26.17142857142857,0.03271244521785587
26.285714285714285,0.03262657277391909
26.4,0.03270068333800305
26.514285714285712,0.032940398997776475
26.628571428571426,0.03330781856283006
26.742857142857144,0.03370333106669332
26.857142857142858,0.0339680796449427
26.97142857142857,0.03392442816320455
27.085714285714285,0.03344703405360389
27.2,0.03252984319088734
27.314285714285713,0.031308771901320934
27.428571428571427,0.03002255528722185
27.54285714285714,0.028928681754025954
27.657142857142855,0.028214144162086306
27.771428571428572,0.027941082542329167
27.885714285714286,0.028049790019677757
28.0,0.02841543702583011
28.114285714285714,0.028929444401702347
28.228571428571428,0.02956369283105246
28.34285714285714,0.03038597211572073
28.457142857142856,0.03152320369715547
28.57142857142857,0.03309382316816355
28.685714285714283,0.03513623334759075
28.8,0.03755330593391719
28.914285714285715,0.040090988822991114
29.02857142857143,0.04237216908155795
29.142857142857142,0.04399432855504016
29.257142857142856,0.044661702021928
29.37142857142857,0.04428719899711337
29.485714285714284,0.04300811076205912
29.599999999999998,0.041116335259725634
29.71428571428571,0.03895946045970338
29.82857142857143,0.036871674866960316
29.942857142857143,0.035146101985666464
30.057142857142857,0.03401577010111755
30.17142857142857,0.03361270891986465
30.285714285714285,0.03391536113235293
30.4,0.03472899211019226
30.514285714285712,0.035737377676568996
30.628571428571426,0.03662038282846068
30.74285714285714,0.03718521452669917
30.857142857142858,0.03744371843070978
30.97142857142857,0.03759319212508974
31.085714285714285,0.037905365329683166
31.2,0.03857108566892064
31.314285714285713,0.03957060751264654
31.428571428571427,0.04063503235147203
31.54285714285714,0.041330225191590575
31.657142857142855,0.041235835321421624
31.77142857142857,0.04013543054237658
31.885714285714286,0.03811951429139457
32.0,0.035550870963078
32.114285714285714,0.032922393708010804
32.22857142857143,0.030691786991451923
32.34285714285714,0.02916823457715739
32.457142857142856,0.02847206119044903
32.57142857142857,0.028542124547491853
32.68571428571428,0.029161274152445175
32.8,0.029995867860333834
32.91428571428571,0.03066329380913474
33.028571428571425,0.03082918035399468
33.14285714285714,0.030306413407389578
33.25714285714285,0.029112608313959412
33.371428571428574,0.027458086231570037
33.48571428571429,0.02567035320443924
33.6,0.024088136066333157
33.714285714285715,0.022964527882444238
33.82857142857143,0.02240931556616473
33.94285714285714,0.022384999857988922
34.05714285714286,0.022753273055687924
34.17142857142857,0.023349831272202817
34.285714285714285,0.024051999177885898
34.4,0.02480671617050245
34.51428571428571,0.025609587006662635
34.628571428571426,0.02645658105630305
34.74285714285714,0.027306417627020945
34.857142857142854,0.028079713924587607
34.97142857142857,0.028689204918800563
35.08571428571428,0.029070902949405453
35.199999999999996,0.029191235313005333
35.31428571428572,0.029034111266894435
35.42857142857143,0.028593561025289642
35.542857142857144,0.02788819251102177
35.65714285714286,0.026984205691894816
35.77142857142857,0.025998289282699562
35.885714285714286,0.025067992655064576
36.0,0.024306411884205438
36.114285714285714,0.023769307873934015
36.22857142857143,0.02344868435787144
36.34285714285714,0.023287228828330238
36.457142857142856,0.023202179730178366
36.57142857142857,0.023113080078815885
36.68571428571428,0.022971075311396943
36.8,0.02278240941549113
36.91428571428571,0.02261403932702074
37.028571428571425,0.02257358840565379
37.14285714285714,0.022767224453837928
37.25714285714285,0.023249468115539438
37.371428571428574,0.023984110175220022
37.48571428571429,0.024834870477786562
37.6,0.025596038856837075
37.714285714285715,0.026055681776258763
37.82857142857143,0.02606484109923484
37.94285714285714,0.025581035395113392
38.05714285714286,0.024671121960575353
38.17142857142857,0.023485129113667028
38.285714285714285,0.022225491493563176
38.4,0.021123404756648978
38.51428571428571,0.020409852233505468
38.628571428571426,0.020261724306160824
38.74285714285714,0.020727408022496494
38.857142857142854,0.02167245483675514
38.97142857142857,0.022796259011824204
39.08571428571428,0.023734791277942167
39.199999999999996,0.024205029462346737
39.31428571428571,0.024112914166832446
39.42857142857143,0.023567930289555325
39.542857142857144,0.022805591069300232
39.65714285714286,0.022068387053160794
39.77142857142857,0.02150671443787778
39.885714285714286,0.021139717621235538
40.0,0.020883863841512744
40.114285714285714,0.020628455152192377
40.22857142857143,0.020317222559914562
40.34285714285714,0.019990858889558226
40.457142857142856,0.019764962383500603
40.57142857142857,0.01975662348295313
40.68571428571428,0.020007750581178037
40.8,0.02045736411367849
40.91428571428571,0.020981144335947263
41.028571428571425,0.021467563994523264
41.14285714285714,0.0218748476027438
41.25714285714285,0.02223332730125989
41.371428571428574,0.022604610506756544
41.48571428571429,0.02303801205895481
41.6,0.023551191083480763
41.714285714285715,0.0241276911699536
41.82857142857143,0.024711453943100366
41.94285714285714,0.025199271836185956
42.05714285714286,0.025454723966731336
42.17142857142857,0.025357008211638887
42.285714285714285,0.024862000407077155
42.4,0.024031349834422736
42.51428571428571,0.02300538757209265
42.628571428571426,0.02193994316930511
42.74285714285714,0.020953269045519692
42.857142857142854,0.020113243167690403
42.97142857142857,0.01945465968633878
43.08571428571428,0.018992457939842756
43.199999999999996,0.018712043207976183
43.31428571428571,0.018554028531779516
43.42857142857143,0.0184264872114676
43.542857142857144,0.01825327816559824
43.65714285714286,0.018027252457041464
43.77142857142857,0.01782536963283711
43.885714285714286,0.017771471039965306
44.0,0.01797102757531771
44.114285714285714,0.018455088012879903
44.22857142857143,0.019156300925390737
44.34285714285714,0.01992234936784023
44.457142857142856,0.020564364484077072
44.57142857142857,0.02092985615411146
44.68571428571428,0.020973447430495562
44.8,0.02078820681672047
44.91428571428571,0.020575085423121656
45.028571428571425,0.020563443185239037
45.14285714285714,0.020923582875216448
45.25714285714285,0.021710800130313738
45.37142857142857,0.022855841237514263
45.48571428571429,0.024191632917694123
45.6,0.025496088650194378
45.714285714285715,0.026535666551199426
45.82857142857143,0.027105972753611037
45.94285714285714,0.02707358206059999
46.05714285714286,0.026418319136515447
46.17142857142857,0.02525921380320737
46.285714285714285,0.023837684653931136
46.4,0.02244646951274526
46.51428571428571,0.02132813788177644
46.628571428571426,0.020594523857229666
46.74285714285714,0.02021219830960313
46.857142857142854,0.020060376955376324
46.97142857142857,0.020023215525410785
47.08571428571428,0.020058534798226366
47.199999999999996,0.0202024903195098
47.31428571428571,0.020512851053619066
47.42857142857143,0.020993717766532895
47.542857142857144,0.021554594845303626
47.65714285714286,0.02203075999101588
47.77142857142857,0.022250374997193373
47.885714285714286,0.022107551695695275
48.0,0.021605172105663813
48.114285714285714,0.020855521223951536
48.22857142857143,0.02004704928425073
48.34285714285714,0.01939062286520362
48.457142857142856,0.019058180893531607
48.57142857142857,0.01913437167402625
48.68571428571428,0.019614177823805055
48.8,0.020478638259314674
48.91428571428571,0.021854738080524135
49.028571428571425,0.02421893790169001
49.14285714285714,0.028546313342862173
49.25714285714285,0.03625146889507841
49.37142857142857,0.04875842727011011
49.48571428571429,0.06666423458353668
49.6,0.08877079331237572
49.714285714285715,0.11159901174489624
49.82857142857143,0.13001343015543865
49.94285714285714,0.13902615731631573
50.05714285714286,0.135973356870886
50.17142857142857,0.12178410484234811
50.285714285714285,0.10052306235704081
50.4,0.07750895706972075
50.51428571428571,0.0571842440360763
50.628571428571426,0.04187181131702024
50.74285714285714,0.031777678149202064
50.857142857142854,0.02581123822735882
50.97142857142857,0.022531528034969245
51.08571428571428,0.020762528413534428
51.199999999999996,0.019794437842310286
51.31428571428571,0.01931475951393661
51.42857142857142,0.01924305203134006
51.542857142857144,0.019574149836323957
51.65714285714286,0.02026843544260366
51.77142857142857,0.021201012344803837
51.885714285714286,0.02217532910631699
52.0,0.02299103744619547
52.114285714285714,0.023527649893449496
52.22857142857143,0.023790644637598793
52.34285714285714,0.02388764476879466
52.457142857142856,0.023949122256022092
52.57142857142857,0.024044594042839335
52.68571428571428,0.024144176475978857
52.8,0.024142094136423573
52.91428571428571,0.023921212752627163
53.028571428571425,0.02341908575356129
53.14285714285714,0.022661189131199657
53.25714285714285,0.021748170143419156
53.37142857142857,0.02080944877985283
53.48571428571429,0.01995269483052769
53.6,0.019237407301419512
53.714285714285715,0.01868158461225759
53.82857142857143,0.018287258597966462
53.94285714285714,0.01806070498020868
54.05714285714286,0.01801243417810888
54.17142857142857,0.01814099961886187
54.285714285714285,0.018417273098501715
54.4,0.018783396215619235
54.51428571428571,0.019167798744581976
54.628571428571426,0.01950664786431667
54.74285714285714,0.019760536561111056
54.857142857142854,0.019920502615040817
54.97142857142857,0.0200026824002427
55.08571428571428,0.020033920284957162
