Frequency,PSD
6.057142857142857,0.31240300917480557
6.171428571428571,0.31301933376207564
6.285714285714286,0.31412613945339696
6.3999999999999995,0.315544293393052
6.514285714285714,0.31716323512526634
6.628571428571428,0.3190718691335077
6.742857142857143,0.32165177539502643
6.857142857142857,0.32559226408901965
6.9714285714285715,0.331805742549148
7.085714285714285,0.341250915299093
7.2,0.35470419219104354
7.314285714285714,0.3725467269795591
7.428571428571428,0.39464561204831544
7.542857142857143,0.42039555666289885
7.657142857142857,0.44894920120879456
7.771428571428571,0.479603370983993
7.885714285714285,0.5122369934629702
8.0,0.5476373623170503
8.114285714285714,0.5875366464997054
8.228571428571428,0.6342373827392194
8.342857142857143,0.6898379054268101
8.457142857142857,0.7552421194341397
8.571428571428571,0.8292839061810497
8.685714285714285,0.9083367857606028
8.799999999999999,0.9866669060902344
8.914285714285715,1.057540159045069
9.028571428571428,1.1148028524279412
9.142857142857142,1.1544492705101008
9.257142857142856,1.175672731779913
9.371428571428572,1.1810877428465485
9.485714285714286,1.1761241489861312
9.6,1.167881433786704
9.714285714285714,1.1638597626678844
9.828571428571427,1.1709073983462797
9.942857142857143,1.1945038886268171
10.057142857142857,1.2382702405626684
10.17142857142857,1.3034967680937704
10.285714285714285,1.3885687864677019
10.4,1.4883999490698105
10.514285714285714,1.5942090895846406
10.628571428571428,1.694036630909841
10.742857142857142,1.7742087970776785
10.857142857142858,1.8215838020840034
10.971428571428572,1.8260385174095615
11.085714285714285,1.7824800133841354
11.2,1.6917923611951078
11.314285714285713,1.560491495011336
11.428571428571429,1.399280410243694
11.542857142857143,1.2209906118477227
11.657142857142857,1.0384733700537339
11.77142857142857,0.8628913329283933
11.885714285714286,0.7026519173341614
12.0,0.5630157389268461
12.114285714285714,0.44626446330145425
12.228571428571428,0.35223835256914054
12.342857142857142,0.2790438519667094
12.457142857142857,0.223765796311931
12.571428571428571,0.18307575678086835
12.685714285714285,0.15368742464808816
12.799999999999999,0.1326556795657417
12.914285714285715,0.11754058829942499
13.028571428571428,0.10646398993523357
13.142857142857142,0.09808441596755742
13.257142857142856,0.09151504521958881
13.371428571428572,0.08621160322488018
13.485714285714286,0.08185826533391684
13.6,0.07827429356027925
13.714285714285714,0.07535172174638548
13.828571428571427,0.07302025598248484
13.942857142857143,0.07122690991467336
14.057142857142857,0.0699184901704142
14.17142857142857,0.0690228264157146
14.285714285714285,0.06843363502155103
14.4,0.06800821784948864
14.514285714285714,0.06758423934070266
14.628571428571428,0.06701334691339669
14.742857142857142,0.06620032728374713
14.857142857142856,0.06513223713240376
14.971428571428572,0.06388531105432865
15.085714285714285,0.062606768588098
15.2,0.06147865389241897
15.314285714285713,0.06067611309979723
15.428571428571429,0.06033112055724526
15.542857142857143,0.060507266185596986
15.657142857142857,0.06118661349794976
15.77142857142857,0.062268798336177794
15.885714285714284,0.06358434785196662
16.0,0.06492471624964567
16.114285714285714,0.06608761816960838
16.228571428571428,0.06692858424584112
16.34285714285714,0.06740282942530987
16.457142857142856,0.0675809317103439
16.57142857142857,0.067629815376936
16.685714285714287,0.06776428268218718
16.8,0.06818700378772519
16.914285714285715,0.06903947979659042
17.02857142857143,0.07038017968928684
17.142857142857142,0.07219208868068626
17.257142857142856,0.07440802921072752
17.37142857142857,0.07693598340132468
17.485714285714284,0.07967117344766231
17.599999999999998,0.08249330137276462
17.714285714285715,0.0852585216465719
17.82857142857143,0.08779966101074539
17.942857142857143,0.08994302062112788
18.057142857142857,0.09153947415269603
18.17142857142857,0.09249807555996505
18.285714285714285,0.09280745034911117
18.4,0.09253526895512515
18.514285714285712,0.09180603182914537
18.628571428571426,0.0907666957611081
18.742857142857144,0.08955352628835199
18.857142857142858,0.08827054931231068
18.97142857142857,0.08698266490052645
19.085714285714285,0.0857195915693296
19.2,0.08448410367337014
19.314285714285713,0.08326010186776184
19.428571428571427,0.08202038649225321
19.54285714285714,0.08073700995421415
19.657142857142855,0.07939658456056137
19.771428571428572,0.07801927990506345
19.885714285714286,0.07667578599548572
20.0,0.0754940041287988
20.114285714285714,0.0746484545288448
20.228571428571428,0.07433048578126422
20.34285714285714,0.07470472169154596
20.457142857142856,0.07586384839713531
20.57142857142857,0.07779655418710243
20.685714285714287,0.08038012731998383
20.8,0.08340055653603787
20.914285714285715,0.0865926661739134
21.02857142857143,0.08968594746440617
21.142857142857142,0.09244183572147913
21.257142857142856,0.09467482778302946
21.37142857142857,0.0962588426668131
21.485714285714284,0.09712628723226675
21.599999999999998,0.097267296697025
21.714285714285715,0.09673139115867671
21.82857142857143,0.09562720524366924
21.942857142857143,0.09411245439671846
22.057142857142857,0.09236842441022276
22.17142857142857,0.09056037818517494
22.285714285714285,0.08879393350874917
22.4,0.08708310113739448
22.514285714285712,0.08534478258035973
22.628571428571426,0.08342647696071641
22.742857142857144,0.0811614584280606
22.857142857142858,0.07843379361918576
22.97142857142857,0.07522955602472779
23.085714285714285,0.0716537792353283
23.2,0.06790481873388331
23.314285714285713,0.06421461450447198
23.428571428571427,0.06077785502404572
23.54285714285714,0.05769835660025974
23.657142857142855,0.05497388783176191
23.771428571428572,0.052523905919692394
23.885714285714286,0.050246030574760306
24.0,0.048075490534050344
24.114285714285714,0.046022421259075574
24.228571428571428,0.04417350906626398
24.34285714285714,0.04266053338123889
24.457142857142856,0.04161111942585883
24.57142857142857,0.041101663702642066
24.685714285714283,0.04112872195486271
24.8,0.04160636723450583
24.914285714285715,0.042387292656197936
25.02857142857143,0.04329798951497253
25.142857142857142,0.044174991028758354
25.257142857142856,0.04489053870731595
25.37142857142857,0.04536151920588192
25.485714285714284,0.04554311362115745
25.599999999999998,0.04541506557629829
25.71428571428571,0.044970647409007206
25.82857142857143,0.04421505848581705
25.942857142857143,0.04317293690539958
26.057142857142857,0.04189801462660421
26.17142857142857,0.04047572135425997
26.285714285714285,0.039013149343081956
26.4,0.03761806620055994
26.514285714285712,0.03637521701663631
26.628571428571426,0.03533012763239739
26.742857142857144,0.034486989642610974
26.857142857142858,0.03382023030002492
26.97142857142857,0.03329301690671778
27.085714285714285,0.0328735219254908
27.2,0.032542199462565743
27.314285714285713,0.032288885484570005
27.428571428571427,0.0321040403383341
27.54285714285714,0.0319710120142966
27.657142857142855,0.03186471341215959
27.771428571428572,0.0317577395393628
27.885714285714286,0.031630361886600025
28.0,0.031478629563982896
28.114285714285714,0.0313160690976056
28.228571428571428,0.03116825572119407
28.34285714285714,0.031063493012609744
28.457142857142856,0.03102466493398098
28.57142857142857,0.031066034029719997
28.685714285714283,0.031195237429372517
28.8,0.03141719376259306
28.914285714285715,0.03173531633684581
29.02857142857143,0.032147236164277684
29.142857142857142,0.032636153955899416
29.257142857142856,0.03316260124728386
29.37142857142857,0.03366252520417245
29.485714285714284,0.034055407639329786
29.599999999999998,0.034261661786191874
29.71428571428571,0.03422406468873384
29.82857142857143,0.03392561450882437
29.942857142857143,0.03339698089361104
30.057142857142857,0.032710288352454236
30.17142857142857,0.03196090661089773
30.285714285714285,0.031243276959335188
30.4,0.03062879851595386
30.514285714285712,0.03015254731218056
30.628571428571426,0.029811666450701317
30.74285714285714,0.029573557983662634
30.857142857142858,0.029388821112848965
30.97142857142857,0.02920355414206245
31.085714285714285,0.02896779139876621
31.2,0.0286398109911207
31.314285714285713,0.028188099509542267
31.428571428571427,0.027593144225397437
31.54285714285714,0.02685026602009579
31.657142857142855,0.02597318457215793
31.77142857142857,0.02499658758242937
31.885714285714286,0.02397517051636489
32.0,0.022976961164682085
32.114285714285714,0.022070626347906793
32.22857142857143,0.021309504512417296
32.34285714285714,0.020717856028147668
32.457142857142856,0.020285334123038328
32.57142857142857,0.019972926195736432
32.68571428571428,0.019728561668034487
32.8,0.019505901043130793
32.91428571428571,0.019278253169403334
33.028571428571425,0.01904209573639703
33.14285714285714,0.01880986626682771
33.25714285714285,0.018596664625210122
33.371428571428574,0.018407737636084064
33.48571428571429,0.018232320289731187
33.6,0.018045727077047966
33.714285714285715,0.01781767103758129
33.82857142857143,0.01752251692739955
33.94285714285714,0.017147263037825513
34.05714285714286,0.016694908648189677
34.17142857142857,0.016183174869274477
34.285714285714285,0.015640095182610253
34.4,0.015098325245040988
34.51428571428571,0.014589512677923648
34.628571428571426,0.014139440743316807
34.74285714285714,0.013764382895487528
34.857142857142854,0.013469124488509855
34.97142857142857,0.013247066185313922
35.08571428571428,0.013082477704629322
35.199999999999996,0.012954406825903264
35.31428571428572,0.012841260614843758
35.42857142857143,0.01272490397195978
35.542857142857144,0.012593316629317048
35.65714285714286,0.012441322544490808
35.77142857142857,0.012269510834802919
35.885714285714286,0.012082028575392954
36.0,0.011884230681331733
36.114285714285714,0.011681047477712892
36.22857142857143,0.011476392469693833
36.34285714285714,0.011273269140212861
36.457142857142856,0.011073881309428955
36.57142857142857,0.010879286634355176
36.68571428571428,0.010688821845400006
36.8,0.010500145519486612
36.91428571428571,0.010310727038361151
37.028571428571425,0.010120804322746105
37.14285714285714,0.009936673480440222
37.25714285714285,0.009772432379030421
37.371428571428574,0.009648565362066392
37.48571428571429,0.00958702619229301
37.6,0.009604146787180978
37.714285714285715,0.009703920595915332
37.82857142857143,0.009874350900835376
37.94285714285714,0.010088508443617751
38.05714285714286,0.010310153635524186
38.17142857142857,0.010502029841060103
38.285714285714285,0.010633998630579468
38.4,0.01068846653720674
38.51428571428571,0.01066186119176259
38.628571428571426,0.01056255867518276
38.74285714285714,0.01040681617131863
38.857142857142854,0.010214441799581121
38.97142857142857,0.010005266098902501
39.08571428571428,0.009796572168820211
39.199999999999996,0.009601131662556649
39.31428571428571,0.009425623778784989
39.42857142857143,0.009269716289512968
39.542857142857144,0.009126436013926292
39.65714285714286,0.00898427571070822
39.77142857142857,0.0088308146626594
39.885714285714286,0.00865687765398903
40.0,0.008459895682281837
40.114285714285714,0.008245381006648095
40.22857142857143,0.008026131553176732
40.34285714285714,0.00781954319843264
40.457142857142856,0.007643884664599831
40.57142857142857,0.007514475808178071
40.68571428571428,0.007440541745646219
40.8,0.007423292893219231
40.91428571428571,0.007455592976650349
41.028571428571425,0.007523363897646425
41.14285714285714,0.0076085431529992675
41.25714285714285,0.007692969019748422
41.371428571428574,0.007762184290193681
41.48571428571429,0.007808043388505987
41.6,0.007829311418155871
41.714285714285715,0.007830099264207725
41.82857142857143,0.00781675406378012
41.94285714285714,0.00779441758453072
42.05714285714286,0.007764632203589818
42.17142857142857,0.00772501821974871
42.285714285714285,0.0076712514777293635
42.4,0.0076005909596430325
42.51428571428571,0.007515412441458971
42.628571428571426,0.007424972671645895
42.74285714285714,0.007344174704620736
42.857142857142854,0.007289322971475837
42.97142857142857,0.007272275231273526
43.08571428571428,0.007295344919320847
43.199999999999996,0.0073492415559391466
43.31428571428571,0.007415179052921213
43.42857142857143,0.007470517045973351
43.542857142857144,0.007495762707445151
43.65714285714286,0.007480200782302769
43.77142857142857,0.007424104944040572
43.885714285714286,0.007337057472051124
44.0,0.007233580773582864
44.114285714285714,0.007128259883561811
44.22857142857143,0.007032392913510882
44.34285714285714,0.006953107620029073
44.457142857142856,0.006894459287458177
44.57142857142857,0.00685904204474438
44.68571428571428,0.006848600147982699
44.8,0.0068629930607977
44.91428571428571,0.006898121202214797
45.028571428571425,0.006944318780827803
45.14285714285714,0.006986725827628871
45.25714285714285,0.00700822803701236
45.37142857142857,0.0069941955253378756
45.48571428571429,0.00693721020782557
45.6,0.006839827585614289
45.714285714285715,0.006714255549834505
45.82857142857143,0.006579191593674358
45.94285714285714,0.00645520983483285
46.05714285714286,0.006360453589134182
46.17142857142857,0.006307869764643393
46.285714285714285,0.0063042235120759176
46.4,0.006350280798727027
46.51428571428571,0.006441291502371104
46.628571428571426,0.006567272748187818
46.74285714285714,0.00671323501584436
46.857142857142854,0.00685996168993918
46.97142857142857,0.0069859686708043725
47.08571428571428,0.007070840930431757
47.199999999999996,0.007099487444385883
47.31428571428571,0.007066261781435548
47.42857142857143,0.006977603206035809
47.542857142857144,0.006852004902011258
47.65714285714286,0.0067167342860872436
47.77142857142857,0.006601695631205558
47.885714285714286,0.00653186838172953
48.0,0.006520508130485122
48.114285714285714,0.006565422906538698
48.22857142857143,0.00664998552819476
48.34285714285714,0.006749247912118671
48.457142857142856,0.006839960518845431
48.57142857142857,0.006911921448567549
48.68571428571428,0.0069772442985875874
48.8,0.007074049909945424
48.91428571428571,0.007261874282236508
49.028571428571425,0.007607838350965526
49.14285714285714,0.008165327082901285
49.25714285714285,0.008950171500282931
49.37142857142857,0.009922064620242019
49.48571428571429,0.010979578532312443
49.6,0.011974294584068687
49.714285714285715,0.012743181662013686
49.82857142857143,0.013150568293991692
49.94285714285714,0.013125591454766822
50.05714285714286,0.012681271965865132
50.17142857142857,0.011908093054735702
50.285714285714285,0.010945237785190938
50.4,0.009941347715594719
50.51428571428571,0.009019498401530214
50.628571428571426,0.008257140565846942
50.74285714285714,0.0076838272977157625
50.857142857142854,0.007292117771767914
50.97142857142857,0.0070535031713624
51.08571428571428,0.006932188224915018
51.199999999999996,0.0068932776221479
51.31428571428571,0.00690571580368381
51.42857142857142,0.006942376584021539
51.542857142857144,0.0069796922826128064
51.65714285714286,0.006998024709632274
51.77142857142857,0.006982762475842164
51.885714285714286,0.006925547956500055
52.0,0.0068250697681498315
52.114285714285714,0.006687094802494265
52.22857142857143,0.006523534963271163
52.34285714285714,0.0063503693092652035
52.457142857142856,0.006184428365800996
52.57142857142857,0.006039545787511135
52.68571428571428,0.005923189221239153
52.8,0.00583491751241791
52.91428571428571,0.005767501430227605
53.028571428571425,0.00571039746747482
53.14285714285714,0.00565409787414016
53.25714285714285,0.00559343259023353
53.37142857142857,0.0055284927160077855
53.48571428571429,0.005463132932822452
53.6,0.005402207040962795
53.714285714285715,0.005349117385292607
53.82857142857143,0.005304779224623656
53.94285714285714,0.005268142597262026
54.05714285714286,0.005237603548288772
54.17142857142857,0.005212366273779139
54.285714285714285,0.0051930663864358925
54.4,0.005181443579396223
54.51428571428571,0.005179279241310365
54.628571428571426,0.005187076532810576
54.74285714285714,0.005203060340859788
54.857142857142854,0.005223008266629871
54.97142857142857,0.005241151458239098
55.08571428571428,0.0052519297722137225
