Frequency,PSD
6.057142857142857,0.1497386589633457
6.171428571428571,0.14999767938532554
6.285714285714286,0.15063238429669237
6.3999999999999995,0.1517179215706819
6.514285714285714,0.15312303787137138
6.628571428571428,0.15448472388381884
6.742857142857143,0.1553450204200066
6.857142857142857,0.15537500199523618
6.9714285714285715,0.15458688371153195
7.085714285714285,0.1534350715436499
7.2,0.152729562343166
7.314285714285714,0.15337859185200847
7.428571428571428,0.15609402629310068
7.542857142857143,0.16119453779737902
7.657142857142857,0.16851724373355056
7.771428571428571,0.1773877646675226
7.885714285714285,0.1867172902808445
8.0,0.1953987589660625
8.114285714285714,0.2029947823736788
8.228571428571428,0.21034512514935236
8.342857142857143,0.21960946713167329
8.457142857142857,0.2336381388921789
8.571428571428571,0.2551044224102915
8.685714285714285,0.2859688442643823
8.799999999999999,0.32741403429695165
8.914285714285715,0.3798582759806913
9.028571428571428,0.44264248937974227
9.142857142857142,0.5135247061542292
9.257142857142856,0.5885675864301415
9.371428571428572,0.6628170702015045
9.485714285714286,0.7315720651254353
9.6,0.7916771709271089
9.714285714285714,0.8423001947064068
9.828571428571427,0.8847576662765269
9.942857142857143,0.9211169200562273
10.057142857142857,0.9519502134015383
10.17142857142857,0.9745956126348749
10.285714285714285,0.9834859386186373
10.4,0.9727717187986915
10.514285714285714,0.9395103149910354
10.628571428571428,0.8850596498482698
10.742857142857142,0.813816137334517
10.857142857142858,0.7307204287039183
10.971428571428572,0.6398155450972516
11.085714285714285,0.5447914873990591
11.2,0.4503413673292394
11.314285714285713,0.3624401000581948
11.428571428571429,0.2869125400040418
11.542857142857143,0.22740001873799037
11.657142857142857,0.18430409901111922
11.77142857142857,0.15528688187360673
11.885714285714286,0.13667232135060517
12.0,0.12474103889622865
12.114285714285714,0.11643213293752883
12.228571428571428,0.10958687219505985
12.342857142857142,0.10301778818953022
12.457142857142857,0.09645679690866686
12.571428571428571,0.09027508436625678
12.685714285714285,0.08499960571845643
12.799999999999999,0.08087886115086644
12.914285714285715,0.07776182401076318
13.028571428571428,0.0753059601420733
13.142857142857142,0.0732755631010678
13.257142857142856,0.07167127328577891
13.371428571428572,0.07062668105464667
13.485714285714286,0.07020506129749698
13.6,0.07026824817509389
13.714285714285714,0.0704944937194376
13.828571428571427,0.07051463144399785
13.942857142857143,0.07008626340356491
14.057142857142857,0.06921956121751802
14.17142857142857,0.06818274496254406
14.285714285714285,0.0673640640729759
14.4,0.06705247619184362
14.514285714285714,0.06726659391378784
14.628571428571428,0.0677449094605794
14.742857142857142,0.06811047453043712
14.857142857142856,0.06811148706804737
14.971428571428572,0.06779165988983518
15.085714285714285,0.06748633479680671
15.2,0.06764144929952168
15.314285714285713,0.06855299464840045
15.428571428571429,0.07017108637558096
15.542857142857143,0.07208188599191503
15.657142857142857,0.07368464738886396
15.77142857142857,0.07446686948205014
15.885714285714284,0.07421864263224057
16.0,0.07306917120411328
16.114285714285714,0.07135015899742164
16.228571428571428,0.06939734203241721
16.34285714285714,0.067412859517794
16.457142857142856,0.06543946283815907
16.57142857142857,0.06342219404720807
16.685714285714287,0.06130702932402175
16.8,0.05913336998667757
16.914285714285715,0.05708506810168275
17.02857142857143,0.0554756923073264
17.142857142857142,0.054673703560392195
17.257142857142856,0.05500469307005455
17.37142857142857,0.056666733086776055
17.485714285714284,0.059663859141482485
17.599999999999998,0.0637451898447925
17.714285714285715,0.06836449286173504
17.82857142857143,0.07272360437816902
17.942857142857143,0.07596615293283882
18.057142857142857,0.0774974624122098
18.17142857142857,0.07726775333768957
18.285714285714285,0.0758075929733168
18.4,0.07394510503387684
18.514285714285712,0.0723741670890125
18.628571428571426,0.0713593322369684
18.742857142857144,0.07074199932028717
18.857142857142858,0.07017790160029369
18.97142857142857,0.06940317446547621
19.085714285714285,0.06837301584545914
19.2,0.06724768603424289
19.314285714285713,0.06628823126870129
19.428571428571427,0.06573171507369256
19.54285714285714,0.0656895745444475
19.657142857142855,0.06609994603732061
19.771428571428572,0.06675752768483302
19.885714285714286,0.06741126523503103
20.0,0.06787272729628746
20.114285714285714,0.06807002187241284
20.228571428571428,0.0680321011780134
20.34285714285714,0.06784306106667867
20.457142857142856,0.06760596992524884
20.57142857142857,0.0674130126936117
20.685714285714287,0.06729908324356998
20.8,0.06718996853593534
20.914285714285715,0.06689620109482769
21.02857142857143,0.06618348209996719
21.142857142857142,0.06487933595226604
21.257142857142856,0.06293966931368632
21.37142857142857,0.060449852161176376
21.485714285714284,0.057607646784327865
21.599999999999998,0.05472770793913745
21.714285714285715,0.05222692998876063
21.82857142857143,0.050514904383890114
21.942857142857143,0.04979646916842685
22.057142857142857,0.04991609179949685
22.17142857142857,0.05039252212253438
22.285714285714285,0.050660636174962165
22.4,0.05036476025705171
22.514285714285712,0.04949443660149551
22.628571428571426,0.0482759842188932
22.742857142857144,0.04692776720803138
22.857142857142858,0.04548524536726412
22.97142857142857,0.04382404028674941
23.085714285714285,0.04183287480239743
23.2,0.03957111224700062
23.314285714285713,0.03728060972489267
23.428571428571427,0.03525891251861984
23.54285714285714,0.033707878625406765
23.657142857142855,0.03266621573105814
23.771428571428572,0.03205035417356763
23.885714285714286,0.031754617889076214
24.0,0.031742012527300356
24.114285714285714,0.03207188763796557
24.228571428571428,0.03283981495200272
24.34285714285714,0.03405462327523826
24.457142857142856,0.0355359221700764
24.57142857142857,0.03692674605726949
24.685714285714283,0.037841898440952745
24.8,0.03806297353252472
24.914285714285715,0.03764762630171507
25.02857142857143,0.03688544666360693
25.142857142857142,0.03614228740520855
25.257142857142856,0.03569406928043769
25.37142857142857,0.03562955902239749
25.485714285714284,0.03584467618929805
25.599999999999998,0.03611279804785834
25.71428571428571,0.03620326195296813
25.82857142857143,0.03600683549533678
25.942857142857143,0.03560656259645153
26.057142857142857,0.03523939243895178
26.17142857142857,0.03515412824387812
26.285714285714285,0.03544993483896724
26.4,0.036005208005423554
26.514285714285712,0.036547681381201375
26.628571428571426,0.03681873920615906
26.742857142857144,0.036724757412413316
26.857142857142858,0.03638424108587601
26.97142857142857,0.0360496859401119
27.085714285714285,0.0359567634042906
27.2,0.036190402015306135
27.314285714285713,0.03664279501040007
27.428571428571427,0.03708128995384723
27.54285714285714,0.03727637517171389
27.657142857142855,0.0371067608314864
27.771428571428572,0.03658572328612751
27.885714285714286,0.03581673316449791
28.0,0.03493003474607785
28.114285714285714,0.03404122517355383
28.228571428571428,0.03323081321172986
28.34285714285714,0.03252262763321486
28.457142857142856,0.03186172731008659
28.57142857142857,0.0311255613901179
28.685714285714283,0.03019340686801201
28.8,0.029043839476592375
28.914285714285715,0.027805691294500896
29.02857142857143,0.026710721003023637
29.142857142857142,0.025972620437915116
29.257142857142856,0.02567690408445087
29.37142857142857,0.025757502913940397
29.485714285714284,0.026069833183725372
29.599999999999998,0.026500859397403726
29.71428571428571,0.02703433599866864
29.82857142857143,0.02772812630939835
29.942857142857143,0.028630334981902303
30.057142857142857,0.029706916357959343
30.17142857142857,0.03083750875355732
30.285714285714285,0.03187298845151375
30.4,0.0326961981007337
30.514285714285712,0.03323590609811327
30.628571428571426,0.033442164169249104
30.74285714285714,0.03327466096394927
30.857142857142858,0.03273569188269784
30.97142857142857,0.03191897522138751
31.085714285714285,0.031013943452960047
31.2,0.03023825830749295
31.314285714285713,0.02973419586640555
31.428571428571427,0.029496211954919298
31.54285714285714,0.029375531117054456
31.657142857142855,0.029159880555679956
31.77142857142857,0.028687488201966444
31.885714285714286,0.02793839760835422
32.0,0.02705481645312586
32.114285714285714,0.026276033397060035
32.22857142857143,0.025820843278744048
32.34285714285714,0.025781981975445487
32.457142857142856,0.02608859017621151
32.57142857142857,0.026550872842260025
32.68571428571428,0.02695631514178587
32.8,0.02716519386442255
32.91428571428571,0.027161574111707127
33.028571428571425,0.027044531565138127
33.14285714285714,0.026972961277209453
33.25714285714285,0.027089398365392686
33.371428571428574,0.02744700594511553
33.48571428571429,0.027965380706793334
33.6,0.028443705802897006
33.714285714285715,0.02864047662875068
33.82857142857143,0.028382880484136376
33.94285714285714,0.027636478328635288
34.05714285714286,0.026490892639558058
34.17142857142857,0.02508517751469794
34.285714285714285,0.023541436953813652
34.4,0.02195332645413909
34.51428571428571,0.02041502402989982
34.628571428571426,0.019041201040933747
34.74285714285714,0.017949327180604262
34.857142857142854,0.017220937311181374
34.97142857142857,0.01687866245697195
35.08571428571428,0.016897002757517855
35.199999999999996,0.01723383143986359
35.31428571428572,0.017856392858014804
35.42857142857143,0.018744348733031147
35.542857142857144,0.019869362702580905
35.65714285714286,0.021165329172855265
35.77142857142857,0.02251228869236593
35.885714285714286,0.02375381603005291
36.0,0.02474593899726053
36.114285714285714,0.025407315570798644
36.22857142857143,0.0257341630904386
36.34285714285714,0.025772216063944003
36.457142857142856,0.025576153394089238
36.57142857142857,0.025195131739572434
36.68571428571428,0.024693308247157923
36.8,0.024177697105036384
36.91428571428571,0.023796243313513526
37.028571428571425,0.02369114301288415
37.14285714285714,0.0239266760323653
37.25714285714285,0.024435479506439702
37.371428571428574,0.0250266927767104
37.48571428571429,0.02546640671251297
37.6,0.0255897339226324
37.714285714285715,0.025374081957908537
37.82857142857143,0.024926079180262108
37.94285714285714,0.024394992786792233
38.05714285714286,0.023874175212167045
38.17142857142857,0.023354955641611636
38.285714285714285,0.022759011771471736
38.4,0.022022400872738705
38.51428571428571,0.021168025871306756
38.628571428571426,0.020310021961389996
38.74285714285714,0.019586208182780403
38.857142857142854,0.01907489835795819
38.97142857142857,0.018765236138550787
39.08571428571428,0.018601077726610484
39.199999999999996,0.018553198261958722
39.31428571428571,0.018653674099048147
39.42857142857143,0.018964220479837732
39.542857142857144,0.019507567795119626
39.65714285714286,0.02021822050690313
39.77142857142857,0.020949987582761783
39.885714285714286,0.021534964852998228
40.0,0.021857447833358377
40.114285714285714,0.021904579347941395
40.22857142857143,0.021773754492866466
40.34285714285714,0.021634571419325167
40.457142857142856,0.021654546094340903
40.57142857142857,0.021912722666608857
40.68571428571428,0.02234389299026867
40.8,0.022755777506845244
40.91428571428571,0.02292335814508585
41.028571428571425,0.02270869790262496
41.14285714285714,0.022130751270277547
41.25714285714285,0.021344960039375426
41.371428571428574,0.020558202101519447
41.48571428571429,0.01994429756142915
41.6,0.019609671423603925
41.714285714285715,0.019608687559829197
41.82857142857143,0.01996923485832354
41.94285714285714,0.020692044507950192
42.05714285714286,0.021724553587642265
42.17142857142857,0.02294342253849672
42.285714285714285,0.024175107654522483
42.4,0.025247603199251154
42.51428571428571,0.026039221420307693
42.628571428571426,0.026499337707621907
42.74285714285714,0.026644173790191027
42.857142857142854,0.02654214988687916
42.97142857142857,0.02629088032979359
43.08571428571428,0.02597846659462229
43.199999999999996,0.025636616795478417
43.31428571428571,0.025217004297751616
43.42857142857143,0.024620652247542632
43.542857142857144,0.023773051391017395
43.65714285714286,0.022696720719154965
43.77142857142857,0.021528931561421317
43.885714285714286,0.02047105759470061
44.0,0.019702934728860137
44.114285714285714,0.019313126477803016
44.22857142857143,0.019276969444778934
44.34285714285714,0.019480343993878883
44.457142857142856,0.01976519883397619
44.57142857142857,0.01997469209979859
44.68571428571428,0.019990809417999272
44.8,0.01976444649223623
44.91428571428571,0.01933086887579831
45.028571428571425,0.018798787801048232
45.14285714285714,0.01831319741737629
45.25714285714285,0.018008857838268916
45.37142857142857,0.017972132046752968
45.48571428571429,0.018216155215224135
45.6,0.01866949165793712
45.714285714285715,0.019187954534185033
45.82857142857143,0.01960266405295654
45.94285714285714,0.019795999826358292
46.05714285714286,0.019764571540085547
46.17142857142857,0.01962175191287971
46.285714285714285,0.019529450675746553
46.4,0.01960127549075649
46.51428571428571,0.01983866180049891
46.628571428571426,0.020132472449697413
46.74285714285714,0.02031733016664081
46.857142857142854,0.0202438357509991
46.97142857142857,0.019839428897867394
47.08571428571428,0.019140576092170063
47.199999999999996,0.018286378437935725
47.31428571428571,0.017474707458444788
47.42857142857143,0.016899188491729878
47.542857142857144,0.016694467081198042
47.65714285714286,0.0169077769646611
47.77142857142857,0.01749714921330639
47.885714285714286,0.01834727596489567
48.0,0.019295319264166905
48.114285714285714,0.02016233442910815
48.22857142857143,0.02078770236630286
48.34285714285714,0.02106607806971918
48.457142857142856,0.020988226348161446
48.57142857142857,0.0206871905464181
48.68571428571428,0.02049517138986831
48.8,0.021030541405940864
48.91428571428571,0.02334144396019891
49.028571428571425,0.02907978402016913
49.14285714285714,0.040523983476034
49.25714285714285,0.06008920795161756
49.37142857142857,0.08902854301708377
49.48571428571429,0.12560396930685938
49.6,0.16388964850783583
49.714285714285715,0.1946883480208772
49.82857142857143,0.20896580015418678
49.94285714285714,0.20217406641005659
50.05714285714286,0.1766524614249072
50.17142857142857,0.14038773987145511
50.285714285714285,0.10303018671623482
50.4,0.07185751417550856
50.51428571428571,0.04990721854033267
50.628571428571426,0.03657119584189011
50.74285714285714,0.029426483709511855
50.857142857142854,0.025910224372439703
50.97142857142857,0.024180800629187017
51.08571428571428,0.023240281087279775
51.199999999999996,0.0226859467312622
51.31428571428571,0.022403129160686496
51.42857142857142,0.022351800655109434
51.542857142857144,0.02247437349272637
51.65714285714286,0.02268847389021164
51.77142857142857,0.022913233077202333
51.885714285714286,0.02309291828447308
52.0,0.023206080737375553
52.114285714285714,0.023262758035255595
52.22857142857143,0.023292195409310348
52.34285714285714,0.023320541467251182
52.457142857142856,0.023344266681939355
52.57142857142857,0.023316950097922225
52.68571428571428,0.023167413238123404
52.8,0.022847098962683037
52.91428571428571,0.02237819251502636
53.028571428571425,0.02186539236819479
53.14285714285714,0.02145313612027245
53.25714285714285,0.021244855643414176
53.37142857142857,0.021230187387848227
53.48571428571429,0.02127034364218062
53.6,0.021161736137038825
53.714285714285715,0.02074667801565975
53.82857142857143,0.0200039542470974
53.94285714285714,0.019063092922035976
54.05714285714286,0.018138283069820505
54.17142857142857,0.01742912701020866
54.285714285714285,0.01704669360697664
54.4,0.016993065815093307
54.51428571428571,0.01718392213150095
54.628571428571426,0.01748967800364345
54.74285714285714,0.01778143906855217
54.857142857142854,0.01797554739856087
54.97142857142857,0.018059821075110803
55.08571428571428,0.018078471000574185
