Frequency,PSD
6.057142857142857,0.08368774340791851
6.171428571428571,0.08346755600462552
6.285714285714286,0.08460014150860365
6.3999999999999995,0.08871529424339458
6.514285714285714,0.09576084574652442
6.628571428571428,0.10353255210523765
6.742857142857143,0.10900096558663251
6.857142857142857,0.11054680437518147
6.9714285714285715,0.10924987115802115
7.085714285714285,0.10786373913712616
7.2,0.10823315450129536
7.314285714285714,0.1097543461714936
7.428571428571428,0.11055217130126962
7.542857142857143,0.10995487467154738
7.657142857142857,0.10938790214434431
7.771428571428571,0.11096807119968063
7.885714285714285,0.11586517097996299
8.0,0.12419911894907633
8.114285714285714,0.13588872277066533
8.228571428571428,0.1510294554026054
8.342857142857143,0.16954767312251612
8.457142857142857,0.19097701241973913
8.571428571428571,0.21528212426669807
8.685714285714285,0.2446708342170733
8.799999999999999,0.2845778667016164
8.914285714285715,0.3416695621061412
9.028571428571428,0.419276061387959
9.142857142857142,0.5132571557255826
9.257142857142856,0.6112299282435089
9.371428571428572,0.696727831325433
9.485714285714286,0.7578458922745623
9.6,0.7958122950344825
9.714285714285714,0.8257250164081082
9.828571428571427,0.8653157492093582
9.942857142857143,0.9174656129829035
10.057142857142857,0.9607141938602957
10.17142857142857,0.9605012306495275
10.285714285714285,0.8974989251080036
10.4,0.788710407373504
10.514285714285714,0.6783811861772897
10.628571428571428,0.6056562799582628
10.742857142857142,0.5797895190154425
10.857142857142858,0.5818661293742505
10.971428571428572,0.5837322541785513
11.085714285714285,0.5654923124582071
11.2,0.5233618773005146
11.314285714285713,0.46812780869851306
11.428571428571429,0.4158025426369484
11.542857142857143,0.3757309953474325
11.657142857142857,0.34562779334485344
11.77142857142857,0.31763728623267584
11.885714285714286,0.2879787343532137
12.0,0.2597753036227842
12.114285714285714,0.23777842126523757
12.228571428571428,0.2225844046428102
12.342857142857142,0.21057042335892298
12.457142857142857,0.19804674698167948
12.571428571428571,0.18402292704668327
12.685714285714285,0.1691807684005785
12.799999999999999,0.15380684061410907
12.914285714285715,0.13784194930915006
13.028571428571428,0.12233832962256846
13.142857142857142,0.10958738893006675
13.257142857142856,0.10139914702163987
13.371428571428572,0.09759141826162158
13.485714285714286,0.09627722181003441
13.6,0.09535448300973753
13.714285714285714,0.09362047551709239
13.828571428571427,0.09079514244108994
13.942857142857143,0.08695108854740714
14.057142857142857,0.08211792588482077
14.17142857142857,0.07633041517272557
14.285714285714285,0.06992232566555398
14.4,0.06370397569486147
14.514285714285714,0.05874905655958724
14.628571428571428,0.05584680505379745
14.742857142857142,0.055039109993658394
14.857142857142856,0.05567899627351256
14.971428571428572,0.05697195894180658
15.085714285714285,0.05843878860332361
15.2,0.05988446532112701
15.314285714285713,0.061139031872922106
15.428571428571429,0.062036647075871906
15.542857142857143,0.06255788084566413
15.657142857142857,0.06275140923446638
15.77142857142857,0.06250030815647847
15.885714285714284,0.06157009899621566
16.0,0.05994390159599301
16.114285714285714,0.05793861366599927
16.228571428571428,0.05593285718643314
16.34285714285714,0.05414824471510417
16.457142857142856,0.05277333340266212
16.57142857142857,0.052117020574285154
16.685714285714287,0.0523963067750515
16.8,0.0533141064961669
16.914285714285715,0.05404823320790599
17.02857142857143,0.053932623386344906
17.142857142857142,0.053156491624870766
17.257142857142856,0.05253694464375917
17.37142857142857,0.05251376893364887
17.485714285714284,0.05259785956735812
17.599999999999998,0.051981168934098265
17.714285714285715,0.050550237224594605
17.82857142857143,0.04909483489678502
17.942857142857143,0.0485178049804115
18.057142857142857,0.04892969911126235
18.17142857142857,0.04950233164453117
18.285714285714285,0.04913410651726463
18.4,0.047281493122939416
18.514285714285712,0.044317379647344834
18.628571428571426,0.041309444313595095
18.742857142857144,0.039486454133037474
18.857142857142858,0.039613018264431435
18.97142857142857,0.04150174331588556
19.085714285714285,0.044117209076170366
19.2,0.046467908423032694
19.314285714285713,0.048543296880196984
19.428571428571427,0.05118353287138168
19.54285714285714,0.05488403186273616
19.657142857142855,0.05887318525263813
19.771428571428572,0.06154587141823566
19.885714285714286,0.0618046435910561
20.0,0.05994734648161193
20.114285714285714,0.05733715091419824
20.228571428571428,0.05530043809459896
20.34285714285714,0.05424784604483858
20.457142857142856,0.05362585497514835
20.57142857142857,0.05256837692325555
20.685714285714287,0.050635096538277705
20.8,0.048078789744858616
20.914285714285715,0.04557075409612404
21.02857142857143,0.04374456253419711
21.142857142857142,0.04293087699154683
21.257142857142856,0.04315914377820904
21.37142857142857,0.0442122514139981
21.485714285714284,0.045540677416978544
21.599999999999998,0.04622023770892138
21.714285714285715,0.04534363635260304
21.82857142857143,0.04274014328843546
21.942857142857143,0.039264435525779226
22.057142857142857,0.03618179851858554
22.17142857142857,0.03421131993361203
22.285714285714285,0.03316561043837599
22.4,0.032395315510567194
22.514285714285712,0.03145609312789724
22.628571428571426,0.030391529649731807
22.742857142857144,0.029520079272054158
22.857142857142858,0.029049677708272797
22.97142857142857,0.02889132677181418
23.085714285714285,0.028732715834714484
23.2,0.02819437383600811
23.314285714285713,0.027005018793115808
23.428571428571427,0.02522222283794036
23.54285714285714,0.023316005080913145
23.657142857142855,0.021899081870139198
23.771428571428572,0.021282973777885558
23.885714285714286,0.021280195288265434
24.0,0.02139003102441066
24.114285714285714,0.021146159186746172
24.228571428571428,0.020371951723293216
24.34285714285714,0.019232960375969804
24.457142857142856,0.018084964009439302
24.57142857142857,0.017215309621792903
24.685714285714283,0.01667883377049146
24.8,0.016389235323475446
24.914285714285715,0.016364936323359745
25.02857142857143,0.016815020203811027
25.142857142857142,0.017922839591648733
25.257142857142856,0.01955992943163362
25.37142857142857,0.021244671907478557
25.485714285714284,0.022398752608152335
25.599999999999998,0.022705281026737
25.71428571428571,0.022306582565386517
25.82857142857143,0.02167803115155891
25.942857142857143,0.021275997193074252
26.057142857142857,0.021282046504865346
26.17142857142857,0.021617819596160326
26.285714285714285,0.022049226916418627
26.4,0.02220431176574814
26.514285714285712,0.021655703997062854
26.628571428571426,0.020201701075812116
26.742857142857144,0.018091112349961157
26.857142857142858,0.015897148857473287
26.97142857142857,0.014170511281700203
27.085714285714285,0.013205188232725963
27.2,0.013009959965633328
27.314285714285713,0.013382122008391275
27.428571428571427,0.0140352102484444
27.54285714285714,0.014755422922106383
27.657142857142855,0.015467472891168978
27.771428571428572,0.016133241924413188
27.885714285714286,0.016629407376304695
28.0,0.016813164802893604
28.114285714285714,0.016713772935978817
28.228571428571428,0.016560579660348653
28.34285714285714,0.016563611223194868
28.457142857142856,0.016719878066741245
28.57142857142857,0.01689004473618833
28.685714285714283,0.017034552104938965
28.8,0.017317338104933046
28.914285714285715,0.01795754439212615
29.02857142857143,0.0189737200419924
29.142857142857142,0.02006095254050034
29.257142857142856,0.020730666986936645
29.37142857142857,0.02063180570953195
29.485714285714284,0.01981578264635806
29.599999999999998,0.018734005115548583
29.71428571428571,0.017969994588240914
29.82857142857143,0.01792825752758584
29.942857142857143,0.018690913252566
30.057142857142857,0.020032466442026456
30.17142857142857,0.02147712615014391
30.285714285714285,0.022420216609287412
30.4,0.022399513000573155
30.514285714285712,0.021394439231104817
30.628571428571426,0.01986976476754639
30.74285714285714,0.01847533278280476
30.857142857142858,0.017643957709662744
30.97142857142857,0.017398604405577344
31.085714285714285,0.017461456233009258
31.2,0.01752081449132195
31.314285714285713,0.017437561234929892
31.428571428571427,0.01725690772843927
31.54285714285714,0.017063838349146168
31.657142857142855,0.016862460251125883
31.77142857142857,0.01661196633688791
31.885714285714286,0.016339066757584116
32.0,0.016152072463160905
32.114285714285714,0.016139260611387516
32.22857142857143,0.016284063111570494
32.34285714285714,0.01647324379633128
32.457142857142856,0.016573641640033367
32.57142857142857,0.016532036071774447
32.68571428571428,0.01642617188996919
32.8,0.016400574432164503
32.91428571428571,0.01654702249642682
33.028571428571425,0.016867826705422327
33.14285714285714,0.017339935973101035
33.25714285714285,0.017966530608954444
33.371428571428574,0.018753608860870342
33.48571428571429,0.019669142340750415
33.6,0.020651117916557306
33.714285714285715,0.021634727987878823
33.82857142857143,0.022512723086762623
33.94285714285714,0.02304342441306636
34.05714285714286,0.022869922447410207
34.17142857142857,0.021749218058236125
34.285714285714285,0.019826601766897663
34.4,0.017672195320160396
34.51428571428571,0.01599434985293617
34.628571428571426,0.015251277018919207
34.74285714285714,0.015479339673026291
34.857142857142854,0.01641981191606992
34.97142857142857,0.017725296629603707
35.08571428571428,0.019057558335586804
35.199999999999996,0.020143501730143062
35.31428571428572,0.02087698384533853
35.42857142857143,0.021365315608026167
35.542857142857144,0.021835456769662774
35.65714285714286,0.02248688015094965
35.77142857142857,0.023357532069091448
35.885714285714286,0.024200852189728013
36.0,0.024519356041535552
36.114285714285714,0.023914461406967666
36.22857142857143,0.02251309544426911
36.34285714285714,0.02097800755130542
36.457142857142856,0.019999969221831535
36.57142857142857,0.019749172413949426
36.68571428571428,0.01982429168099477
36.8,0.01972311723351061
36.91428571428571,0.019316267597929728
37.028571428571425,0.018853978891112812
37.14285714285714,0.018637979692846387
37.25714285714285,0.018830675514334448
37.371428571428574,0.019511010078857728
37.48571428571429,0.02068078897531599
37.6,0.022112846952845735
37.714285714285715,0.023300736539432695
37.82857142857143,0.0236857506072249
37.94285714285714,0.022979934527191617
38.05714285714286,0.021316173863009734
38.17142857142857,0.01916913393392878
38.285714285714285,0.01715091883365209
38.4,0.0157814863831362
38.51428571428571,0.015308913520811946
38.628571428571426,0.015644494404253834
38.74285714285714,0.01642722490273339
38.857142857142854,0.01718155746577487
38.97142857142857,0.0175226973123396
39.08571428571428,0.01733394132822429
39.199999999999996,0.01679859746421381
39.31428571428571,0.016242206673628194
39.42857142857143,0.015905381710400762
39.542857142857144,0.015825807658632406
39.65714285714286,0.01589849383033313
39.77142857142857,0.016024885767126323
39.885714285714286,0.01619030346505674
40.0,0.01641239106715063
40.114285714285714,0.016675754111210278
40.22857142857143,0.01694907166695084
40.34285714285714,0.017199320880954147
40.457142857142856,0.017322711484391178
40.57142857142857,0.01712363706333022
40.68571428571428,0.01648282959227697
40.8,0.015579024655011637
40.91428571428571,0.014886661516578662
41.028571428571425,0.014882190088420122
41.14285714285714,0.015680007596157036
41.25714285714285,0.016887275240776413
41.371428571428574,0.017801152436338365
41.48571428571429,0.01783042931628421
41.6,0.01686229483544348
41.714285714285715,0.015310917063568269
41.82857142857143,0.013807443888502089
41.94285714285714,0.012789881731434746
42.05714285714286,0.012333176947127364
42.17142857142857,0.012300399973617171
42.285714285714285,0.012574162037290683
42.4,0.013108321937052173
42.51428571428571,0.013812742407514837
42.628571428571426,0.014484573306178344
42.74285714285714,0.014894150119230365
42.857142857142854,0.01492099486014634
42.97142857142857,0.014614241021978853
43.08571428571428,0.014168345945652612
43.199999999999996,0.013838302762156049
43.31428571428571,0.013800203828265351
43.42857142857143,0.014029088294755312
43.542857142857144,0.014313858528190691
43.65714285714286,0.014410999307370349
43.77142857142857,0.014196569995077893
43.885714285714286,0.01370830452072769
44.0,0.01308563910065134
44.114285714285714,0.012465553548664837
44.22857142857143,0.011916536884602827
44.34285714285714,0.011480151475362882
44.457142857142856,0.011258147314490995
44.57142857142857,0.011388423688664127
44.68571428571428,0.011892772871934656
44.8,0.012583672000680616
44.91428571428571,0.013173506251335138
45.028571428571425,0.01347971085557777
45.14285714285714,0.013514544739793969
45.25714285714285,0.013417194285458196
45.37142857142857,0.013346517470109932
45.48571428571429,0.013407622890429073
45.6,0.013609703883833809
45.714285714285715,0.013867790587652997
45.82857142857143,0.014046636803101302
45.94285714285714,0.01400292306011805
46.05714285714286,0.01362482431045886
46.17142857142857,0.01290333297196188
46.285714285714285,0.01198624346355307
46.4,0.011112105387153265
46.51428571428571,0.01044803459426618
46.628571428571426,0.010007822597783222
46.74285714285714,0.009749774895452383
46.857142857142854,0.009711229525303074
46.97142857142857,0.009980950586628125
47.08571428571428,0.010539247120609465
47.199999999999996,0.011174283028902075
47.31428571428571,0.011586473486842889
47.42857142857143,0.011597473325916053
47.542857142857144,0.011291770979704668
47.65714285714286,0.010957373913723653
47.77142857142857,0.010842000761921806
47.885714285714286,0.010929549247642419
48.0,0.010962241331561335
48.114285714285714,0.010694135470522788
48.22857142857143,0.010112845308571016
48.34285714285714,0.009423585014309564
48.457142857142856,0.008867107338030304
48.57142857142857,0.008571007579225074
48.68571428571428,0.008516457460079192
48.8,0.008581021020667223
48.91428571428571,0.008618767956074684
49.028571428571425,0.008558856999318087
49.14285714285714,0.008489521071978841
49.25714285714285,0.008701021466254327
49.37142857142857,0.009683617932400534
49.48571428571429,0.012026028589528302
49.6,0.016065706743341446
49.714285714285715,0.0212976390745984
49.82857142857143,0.026073750826768938
49.94285714285714,0.028301357012005122
50.05714285714286,0.026897330186514117
50.17142857142857,0.022620222082675324
50.285714285714285,0.01739677733719563
50.4,0.012937756911299277
50.51428571428571,0.009982986504142647
50.628571428571426,0.008463134196188932
50.74285714285714,0.007972167672262338
50.857142857142854,0.008093085711204668
50.97142857142857,0.008540170189252499
51.08571428571428,0.00916782543832724
51.199999999999996,0.009870977115136452
51.31428571428571,0.010480699311037785
51.42857142857142,0.010785903522831713
51.542857142857144,0.010674339550159131
51.65714285714286,0.010244343155684558
51.77142857142857,0.009767176143519402
51.885714285714286,0.00952139305561288
52.0,0.009616178394633525
52.114285714285714,0.009922772094427101
52.22857142857143,0.010169299864889157
52.34285714285714,0.010141659935962036
52.457142857142856,0.009840198485972299
52.57142857142857,0.009471815751688702
52.68571428571428,0.009295878877672045
52.8,0.009451716403342922
52.91428571428571,0.00988660993587473
53.028571428571425,0.010416079258401528
53.14285714285714,0.010857311911031672
53.25714285714285,0.011128605840923511
53.37142857142857,0.011245301298902768
53.48571428571429,0.011251367197794937
53.6,0.011180438455479842
53.714285714285715,0.011064511706072679
53.82857142857143,0.010929830122508689
53.94285714285714,0.010770443598343785
54.05714285714286,0.010563760570586837
54.17142857142857,0.010335712234636646
54.285714285714285,0.01018735388686752
54.4,0.010229419740482072
54.51428571428571,0.010488085298407423
54.628571428571426,0.01087976654155004
54.74285714285714,0.011274436467598363
54.857142857142854,0.0115787825228161
54.97142857142857,0.011766472300593718
55.08571428571428,0.011851810864101715
