Frequency,PSD
6.057142857142857,0.07150635657022815
6.171428571428571,0.07120102516416887
6.285714285714286,0.07066534415860114
6.3999999999999995,0.07003759096409987
6.514285714285714,0.06949573065679523
6.628571428571428,0.06922367028242718
6.742857142857143,0.06937354151723929
6.857142857142857,0.07003437245456116
6.9714285714285715,0.0712179701086673
7.085714285714285,0.07286779407684835
7.2,0.07488788526393841
7.314285714285714,0.07718121282124922
7.428571428571428,0.0796846601565751
7.542857142857143,0.08239249170622687
7.657142857142857,0.08536838435301321
7.771428571428571,0.08875240412276371
7.885714285714285,0.09276918497985899
8.0,0.09773652757302209
8.114285714285714,0.10406386534651665
8.228571428571428,0.11222459370056649
8.342857142857143,0.12269137146395805
8.457142857142857,0.13584051951852044
8.571428571428571,0.1518546017867927
8.685714285714285,0.17066935670109795
8.799999999999999,0.19201017448655638
8.914285714285715,0.21553872838429797
9.028571428571428,0.24108753293994314
9.142857142857142,0.26891438535392315
9.257142857142856,0.2998792137195339
9.371428571428572,0.33544845496432085
9.485714285714286,0.3774716597537186
9.6,0.42774207231209094
9.714285714285714,0.48742537246462664
9.828571428571427,0.5564924630230924
9.942857142857143,0.6333051124285548
10.057142857142857,0.714475726039959
10.17142857142857,0.7950670026539025
10.285714285714285,0.8691296735795213
10.4,0.930507173352988
10.514285714285714,0.9737708818861989
10.628571428571428,0.9950994990016114
10.742857142857142,0.9929020028884334
10.857142857142858,0.9680265983469178
10.971428571428572,0.9235002258985756
11.085714285714285,0.8638756926521365
11.2,0.7943749788380126
11.314285714285713,0.7200606185340195
11.428571428571429,0.6452262135646474
11.542857142857143,0.5730958965250516
11.657142857142857,0.505809726669767
11.77142857142857,0.4445941979341128
11.885714285714286,0.38999673433037035
12.0,0.34209320403373866
12.114285714285714,0.3006315832709569
12.228571428571428,0.26512308256564415
12.342857142857142,0.23491441081189562
12.457142857142857,0.20926787816793713
12.571428571428571,0.1874515428236454
12.685714285714285,0.1688189858623721
12.799999999999999,0.15285298523976804
12.914285714285715,0.13916166580596437
13.028571428571428,0.12743839716497216
13.142857142857142,0.11741201074195004
13.257142857142856,0.10881298204348194
13.371428571428572,0.1013672809850945
13.485714285714286,0.09481341822526816
13.6,0.0889291666429695
13.714285714285714,0.0835546705001668
13.828571428571427,0.07860411430240702
13.942857142857143,0.07406359188048782
14.057142857142857,0.06997592715709115
14.17142857142857,0.06641474485120005
14.285714285714285,0.06345176463881938
14.4,0.06112357364286048
14.514285714285714,0.05940591768329045
14.628571428571428,0.05820323898550475
14.742857142857142,0.057357964070090174
14.857142857142856,0.05667848294289281
14.971428571428572,0.05597860830032401
15.085714285714285,0.05511683787640747
15.2,0.054022994832296854
15.314285714285713,0.052703742800231136
15.428571428571429,0.05122616005617822
15.542857142857143,0.0496870324891785
15.657142857142857,0.04818074068243589
15.77142857142857,0.04677766420555822
15.885714285714284,0.04551827895255912
16.0,0.044419518580820785
16.114285714285714,0.04348472835189339
16.228571428571428,0.042709657548469566
16.34285714285714,0.042083029975050486
16.457142857142856,0.04158644359828377
16.57142857142857,0.04119980103794298
16.685714285714287,0.04091380984915943
16.8,0.04074359085592643
16.914285714285715,0.04073281859274018
17.02857142857143,0.04094026121671
17.142857142857142,0.04140963546069765
17.257142857142856,0.04213428631296394
17.37142857142857,0.04303382073168942
17.485714285714284,0.043956646591315755
17.599999999999998,0.04471166825949117
17.714285714285715,0.045119690741184
17.82857142857143,0.04506676103832673
17.942857142857143,0.04454132651854601
18.057142857142857,0.04364391350844089
18.17142857142857,0.04256794983813323
18.285714285714285,0.04155880656920309
18.4,0.040862499712529636
18.514285714285712,0.040675780653580434
18.628571428571426,0.04110715006954886
18.742857142857144,0.04215527998475319
18.857142857142858,0.0437081884506818
18.97142857142857,0.04556327610093661
19.085714285714285,0.04746481448336076
19.2,0.04915182227147896
19.314285714285713,0.050406211258521696
19.428571428571427,0.05108988819707913
19.54285714285714,0.05116146435219836
19.657142857142855,0.050668774966704064
19.771428571428572,0.04972119540061693
19.885714285714286,0.04845266098067934
20.0,0.046988929738297554
20.114285714285714,0.04542936407417979
20.228571428571428,0.04384586502061867
20.34285714285714,0.04229353047442365
20.457142857142856,0.04082320288698476
20.57142857142857,0.03948716049165972
20.685714285714287,0.03833456429829603
20.8,0.03739964419054221
20.914285714285715,0.036689667627491034
21.02857142857143,0.03617974011310343
21.142857142857142,0.03581787933396654
21.257142857142856,0.035538733581955605
21.37142857142857,0.035280440723752964
21.485714285714284,0.03499825803487837
21.599999999999998,0.0346708146680816
21.714285714285715,0.0342985876705512
21.82857142857143,0.033897317126558246
21.942857142857143,0.033490096271923425
22.057142857142857,0.033100757541984265
22.17142857142857,0.032749065755423176
22.285714285714285,0.03244659870438035
22.4,0.03219202998655208
22.514285714285712,0.03196590795706819
22.628571428571426,0.03172710345391393
22.742857142857144,0.03141443547719145
22.857142857142858,0.03095623438975182
22.97142857142857,0.030287444122871564
23.085714285714285,0.029369590033767386
23.2,0.028206037809729606
23.314285714285713,0.026845640985323303
23.428571428571427,0.025372377303271708
23.54285714285714,0.02388471871979867
23.657142857142855,0.022472864888017474
23.771428571428572,0.021202179169737018
23.885714285714286,0.020107336351001565
24.0,0.01919630745411758
24.114285714285714,0.018459445485634128
24.228571428571428,0.017878303482877445
24.34285714285714,0.017430952322831098
24.457142857142856,0.01709356730841504
24.57142857142857,0.016840056771827455
24.685714285714283,0.016641788836931952
24.8,0.01646853558640858
24.914285714285715,0.016290617343737504
25.02857142857143,0.016081629316267543
25.142857142857142,0.015821173907170402
25.257142857142856,0.015497355152200245
25.37142857142857,0.015109001247841886
25.485714285714284,0.014667461797521616
25.599999999999998,0.014197444512673272
25.71428571428571,0.01373597675275432
25.82857142857143,0.013328546390519776
25.942857142857143,0.013022061182277764
26.057142857142857,0.012855452765704184
26.17142857142857,0.01285011205111004
26.285714285714285,0.013003142536993396
26.4,0.013286017912841657
26.514285714285712,0.01364956253824607
26.628571428571426,0.014033921831516853
26.742857142857144,0.014380460799389958
26.857142857142858,0.01464218249503683
26.97142857142857,0.014790357813754209
27.085714285714285,0.01481684855882657
27.2,0.014733040196216705
27.314285714285713,0.01456673221879921
27.428571428571427,0.014357873358734742
27.54285714285714,0.014153340526633702
27.657142857142855,0.01400070246412072
27.771428571428572,0.01394126946147363
27.885714285714286,0.014003383328399397
28.0,0.014197341633592903
28.114285714285714,0.014513276698191736
28.228571428571428,0.014922764317396232
28.34285714285714,0.015384158239156539
28.457142857142856,0.015850847650814272
28.57142857142857,0.016280918202617397
28.685714285714283,0.016646136341628016
28.8,0.016937936996874
28.914285714285715,0.017168431183824096
29.02857142857143,0.017365546637450522
29.142857142857142,0.01756316052828982
29.257142857142856,0.01778895921703852
29.37142857142857,0.01805396441792532
29.485714285714284,0.01834748328812846
29.599999999999998,0.018639484395233927
29.71428571428571,0.01888965132130396
29.82857142857143,0.019059792964891464
29.942857142857143,0.019125094376800208
30.057142857142857,0.019080437696309127
30.17142857142857,0.01894028451238745
30.285714285714285,0.0187331981876799
30.4,0.01849374239676607
30.514285714285712,0.018254640724006743
30.628571428571426,0.018041087594968926
30.74285714285714,0.017867880034739683
30.857142857142858,0.017739311317807045
30.97142857142857,0.017651555570511675
31.085714285714285,0.017597068819365996
31.2,0.017569943827943118
31.314285714285713,0.017570412659104986
31.428571428571427,0.017606506207015184
31.54285714285714,0.017691774051461953
31.657142857142855,0.01783968314826087
31.77142857142857,0.01805689356458141
31.885714285714286,0.018338099506632278
32.0,0.0186642881846801
32.114285714285714,0.019004720211829123
32.22857142857143,0.019321619766981928
32.34285714285714,0.019576077629126793
32.457142857142856,0.019733950062691682
32.57142857142857,0.019771065597465404
32.68571428571428,0.019677331435803337
32.8,0.01945922207232016
32.91428571428571,0.019139880668451792
33.028571428571425,0.018756074895338447
33.14285714285714,0.01835179888696355
33.25714285714285,0.017969354777831133
33.371428571428574,0.01763990109009393
33.48571428571429,0.0173761738044688
33.6,0.017169915885879544
33.714285714285715,0.016995363286187
33.82857142857143,0.01681822024067185
33.94285714285714,0.016607551788997008
34.05714285714286,0.01634670933568384
34.17142857142857,0.016039431236792932
34.285714285714285,0.015708829894199503
34.4,0.015389637381837648
34.51428571428571,0.015116766915061884
34.628571428571426,0.014914697679863852
34.74285714285714,0.014791625192069679
34.857142857142854,0.01473996704135322
34.97142857142857,0.014741884955367048
35.08571428571428,0.014776512945641926
35.199999999999996,0.014825527180165651
35.31428571428572,0.014875388184346545
35.42857142857143,0.014916881297815836
35.542857142857144,0.014944071977754263
35.65714285714286,0.014954649177673678
35.77142857142857,0.014952052165199087
35.885714285714286,0.014947840057502906
36.0,0.014961776444402188
36.114285714285714,0.015017822406008503
36.22857142857143,0.0151363859480846
36.34285714285714,0.015325564291181829
36.457142857142856,0.015575292270573532
36.57142857142857,0.015857466503176213
36.68571428571428,0.016132608890249537
36.8,0.016360791489111327
36.91428571428571,0.016512838972468528
37.028571428571425,0.016577976240947694
37.14285714285714,0.01656572970679154
37.25714285714285,0.016501981829186135
37.371428571428574,0.016420695548740323
37.48571428571429,0.016353671366893734
37.6,0.016320989688987333
37.714285714285715,0.016324737211653305
37.82857142857143,0.016348082244609232
37.94285714285714,0.01636044618676477
38.05714285714286,0.016327474313500148
38.17142857142857,0.01622248123376233
38.285714285714285,0.016035172980610985
38.4,0.015774482724128618
38.51428571428571,0.015464992927830476
38.628571428571426,0.015139297831008265
38.74285714285714,0.014830178039385482
38.857142857142854,0.014565803391694335
38.97142857142857,0.014368881813237599
39.08571428571428,0.014258229402490717
39.199999999999996,0.01425010441051655
39.31428571428571,0.01435732050735368
39.42857142857143,0.01458597487813322
39.542857142857144,0.014931351768722661
39.65714285714286,0.015375207441024677
39.77142857142857,0.015886009858331395
39.885714285714286,0.01642233917897977
40.0,0.01693838130934353
40.114285714285714,0.01738987367285801
40.22857142857143,0.017739109409014086
40.34285714285714,0.01795835008466815
40.457142857142856,0.01803172702074919
40.57142857142857,0.017956028562023423
40.68571428571428,0.017740589462810923
40.8,0.0174060724489362
40.91428571428571,0.016981693779834012
41.028571428571425,0.016500730152523086
41.14285714285714,0.015994942997212817
41.25714285714285,0.015489451946923269
41.371428571428574,0.014999966511640471
41.48571428571429,0.014533706993051596
41.6,0.01409387834445483
41.714285714285715,0.0136858271689368
41.82857142857143,0.01332191533354088
41.94285714285714,0.013022387453326402
42.05714285714286,0.012811170635582273
42.17142857142857,0.012707944477446517
42.285714285714285,0.012719801283752035
42.4,0.01283632463195389
42.51428571428571,0.01303057319532141
42.628571428571426,0.013265828636801896
42.74285714285714,0.013505318538727624
42.857142857142854,0.013720799271120448
42.97142857142857,0.013896581089172
43.08571428571428,0.014027945096775839
43.199999999999996,0.01411567788387387
43.31428571428571,0.014160150831412713
43.42857142857143,0.01415814616411656
43.542857142857144,0.014103753337051791
43.65714285714286,0.01399231015752197
43.77142857142857,0.013824861397862142
43.885714285714286,0.013610617939533498
44.0,0.013366156281858672
44.114285714285714,0.013111743942245218
44.22857142857143,0.012866363893403647
44.34285714285714,0.012643324755187665
44.457142857142856,0.012447848917711828
44.57142857142857,0.012277085149917419
44.68571428571428,0.012122032480259544
44.8,0.011970270435259375
44.91428571428571,0.011808395777856686
45.028571428571425,0.011623640379210574
45.14285714285714,0.011404959229791194
45.25714285714285,0.011144415707784346
45.37142857142857,0.01083953808614828
45.48571428571429,0.010496466023829826
45.6,0.010132626748134267
45.714285714285715,0.009777096269403474
45.82857142857143,0.00946721665085141
45.94285714285714,0.009241397617103898
46.05714285714286,0.009129712509332236
46.17142857142857,0.00914508721099379
46.285714285714285,0.009278014500222333
46.4,0.009496756262592502
46.51428571428571,0.009753327554225606
46.628571428571426,0.009993793636468762
46.74285714285714,0.010170107499903254
46.857142857142854,0.01025024463575259
46.97142857142857,0.010223903508785055
47.08571428571428,0.010102421039716623
47.199999999999996,0.009913388463061073
47.31428571428571,0.00969208664987886
47.42857142857143,0.00947262517326219
47.542857142857144,0.009281243873252819
47.65714285714286,0.009132890674219475
47.77142857142857,0.009030702692520846
47.885714285714286,0.008967222437956782
48.0,0.00892641773136545
48.114285714285714,0.008886449010716104
48.22857142857143,0.008823796515517136
48.34285714285714,0.008719158665541644
48.457142857142856,0.008564488516657165
48.57142857142857,0.008369357123703592
48.68571428571428,0.008164386499738177
48.8,0.008000152899800125
48.91428571428571,0.00794132256800888
49.028571428571425,0.00805698338169577
49.14285714285714,0.008408540001585278
49.25714285714285,0.00903629117191259
49.37142857142857,0.009945770809501028
49.48571428571429,0.011095939317477859
49.6,0.012393186602707386
49.714285714285715,0.013696337784894774
49.82857142857143,0.014836419108246915
49.94285714285714,0.015650016779544557
50.05714285714286,0.016018291328243686
50.17142857142857,0.015898801265903165
50.285714285714285,0.015337775083227506
50.4,0.014457114071403281
50.51428571428571,0.01342028361059143
50.628571428571426,0.01238937919280098
50.74285714285714,0.01148808791413044
50.857142857142854,0.010781373458122148
50.97142857142857,0.010275143856469401
51.08571428571428,0.009931844566738814
51.199999999999996,0.009693745026420808
51.31428571428571,0.009505388743764241
51.42857142857142,0.009329202462376597
51.542857142857144,0.009151873061121077
51.65714285714286,0.008982316888353256
51.77142857142857,0.008844045951972608
51.885714285714286,0.008765287408118527
52.0,0.008769654050788445
52.114285714285714,0.008869111149692589
52.22857142857143,0.009060051876272379
52.34285714285714,0.009322767967912272
52.457142857142856,0.009624325940809282
52.57142857142857,0.009924443213823334
52.68571428571428,0.010183204452180187
52.8,0.01036863767758603
52.91428571428571,0.01046189232221452
53.028571428571425,0.01045849570890757
53.14285714285714,0.010365775638715043
53.25714285714285,0.010198233978453729
53.37142857142857,0.009973443614823635
53.48571428571429,0.00971038540006642
53.6,0.0094303809552131
53.714285714285715,0.009158958948091642
53.82857142857143,0.008926224454564466
53.94285714285714,0.008764050123305677
54.05714285714286,0.008700220521860109
54.17142857142857,0.008751475772503195
54.285714285714285,0.008918212847619659
54.4,0.009183031279162208
54.51428571428571,0.009513733747743986
54.628571428571426,0.009869649811472779
54.74285714285714,0.010209054118049832
54.857142857142854,0.010495404204467835
54.97142857142857,0.010701011200374262
55.08571428571428,0.010808069582743492
