Frequency,PSD
6.057142857142857,0.26043060262534556
6.171428571428571,0.263904242385323
6.285714285714286,0.2706898075760106
6.3999999999999995,0.2806454361690487
6.514285714285714,0.29386961919280535
6.628571428571428,0.31077756809239304
6.742857142857143,0.3319451104907919
6.857142857142857,0.35780329704962427
6.9714285714285715,0.3884026590764681
7.085714285714285,0.42346977446576584
7.2,0.4628323464136145
7.314285714285714,0.5070694653219393
7.428571428571428,0.55808038547409
7.542857142857143,0.6192565335179103
7.657142857142857,0.6950881964712505
7.771428571428571,0.7902453261123583
7.885714285714285,0.9083268041255353
8.0,1.0505230216261734
8.114285714285714,1.2144173124979105
8.228571428571428,1.3931351279913606
8.342857142857143,1.5750768899952416
8.457142857142857,1.7445120954359221
8.571428571428571,1.8832768769491177
8.685714285714285,1.9736014330920737
8.799999999999999,2.0016708261826475
8.914285714285715,1.96103025282202
9.028571428571428,1.8546785910102894
9.142857142857142,1.6949329934698512
9.257142857142856,1.500912134503256
9.371428571428572,1.2944305196749972
9.485714285714286,1.0956976207507663
9.6,0.9201374656212147
9.714285714285714,0.7769793091440083
9.828571428571427,0.6694556611726631
9.942857142857143,0.595937523908968
10.057142857142857,0.551319875745233
10.17142857142857,0.5282914782133098
10.285714285714285,0.518470090864134
10.4,0.5135222738933656
10.514285714285714,0.5062889497085352
10.628571428571428,0.49175026483333434
10.742857142857142,0.4675683803395223
10.857142857142858,0.43403172619401054
10.971428571428572,0.3934374114118302
11.085714285714285,0.34915424008066304
11.2,0.3046882486715385
11.314285714285713,0.2629984190173934
11.428571428571429,0.22614974546317498
11.542857142857143,0.19524725591419306
11.657142857142857,0.17053477688164137
11.77142857142857,0.1515640114405534
11.885714285714286,0.13739260627999023
12.0,0.12680372453887412
12.114285714285714,0.11853746813331673
12.228571428571428,0.1115037205569224
12.342857142857142,0.10493432500936338
12.457142857142857,0.09844409151784636
12.571428571428571,0.09199841193945917
12.685714285714285,0.08581286492577772
12.799999999999999,0.08022361134205322
12.914285714285715,0.07556462061966346
13.028571428571428,0.07207547287243649
13.142857142857142,0.06984940472661422
13.257142857142856,0.06881986602011307
13.371428571428572,0.0687769695233868
13.485714285714286,0.06940376956900937
13.6,0.07032550670470797
13.714285714285714,0.07116873064147297
13.828571428571427,0.07162597234484651
13.942857142857143,0.07151365375238625
14.057142857142857,0.07080225603879386
14.17142857142857,0.06959925552977758
14.285714285714285,0.06808318289645765
14.4,0.06641462017455249
14.514285714285714,0.06466886143360825
14.628571428571428,0.06282849367709807
14.742857142857142,0.0608415088076389
14.857142857142856,0.058710644343840795
14.971428571428572,0.05655887444705873
15.085714285714285,0.054628985429047046
15.2,0.05321391000897928
15.314285714285713,0.05255402004859128
15.428571428571429,0.052753628561952814
15.542857142857143,0.05375386737546499
15.657142857142857,0.05536537044804106
15.77142857142857,0.05733448744910417
15.885714285714284,0.059408219879594076
16.0,0.06137655827809513
16.114285714285714,0.06309228684759922
16.228571428571428,0.06448056269313486
16.34285714285714,0.06554688581241903
16.457142857142856,0.06637972104810867
16.57142857142857,0.06713627950645398
16.685714285714287,0.06800418502121378
16.8,0.06914436160604903
16.914285714285715,0.07063189396999807
17.02857142857143,0.07241488410806586
17.142857142857142,0.07430623442952805
17.257142857142856,0.07601377728963735
17.37142857142857,0.0772036614841447
17.485714285714284,0.07758176364007799
17.599999999999998,0.07696972074543088
17.714285714285715,0.07534999886076033
17.82857142857143,0.0728627533758826
17.942857142857143,0.06975582703324887
18.057142857142857,0.06630979549205948
18.17142857142857,0.06277016031107195
18.285714285714285,0.059311591679445844
18.4,0.056039413779670574
18.514285714285712,0.05301481006554493
18.628571428571426,0.05028379652040156
18.742857142857144,0.04789645053363906
18.857142857142858,0.04591348771538117
18.97142857142857,0.04440305033587284
19.085714285714285,0.04342966624590891
19.2,0.04303479964518534
19.314285714285713,0.04321009280349349
19.428571428571427,0.04387129562197521
19.54285714285714,0.044848062218744676
19.657142857142855,0.04590480015637613
19.771428571428572,0.04679627070089644
19.885714285714286,0.047342196365532004
20.0,0.04748905361881729
20.114285714285714,0.047326850543476594
20.228571428571428,0.04704765840350198
20.34285714285714,0.04686143513938656
20.457142857142856,0.04690623355853547
20.57142857142857,0.04719166204909779
20.685714285714287,0.04759665434136763
20.8,0.04791671743542753
20.914285714285715,0.04793603660648093
21.02857142857143,0.047494446971323365
21.142857142857142,0.04652762917261313
21.257142857142856,0.04507367797921393
21.37142857142857,0.043251958662725846
21.485714285714284,0.04122619400056999
21.599999999999998,0.03916376079682756
21.714285714285715,0.037200955652894524
21.82857142857143,0.035421904778269155
21.942857142857143,0.033855893047865515
22.057142857142857,0.032492238757539635
22.17142857142857,0.03130444635433562
22.285714285714285,0.030270866328955794
22.4,0.029381823044672066
22.514285714285712,0.028632479605461558
22.628571428571426,0.028010458032161914
22.742857142857144,0.02749042565916449
22.857142857142858,0.02704224012082527
22.97142857142857,0.026649005828727826
23.085714285714285,0.026323789236898834
23.2,0.026113714067774185
23.314285714285713,0.026087193838121824
23.428571428571427,0.02630916720786111
23.54285714285714,0.0268147539961278
23.657142857142855,0.027591182603549747
23.771428571428572,0.028572805082398435
23.885714285714286,0.02964854035071545
24.0,0.03067833194527032
24.114285714285714,0.03151533348535826
24.228571428571428,0.03203124777851216
24.34285714285714,0.03214140672294512
24.457142857142856,0.0318240459661279
24.57142857142857,0.031127232417557826
24.685714285714283,0.030159254754702672
24.8,0.029063759842758503
24.914285714285715,0.027986829298058215
25.02857142857143,0.027046357215505346
25.142857142857142,0.02631287588044552
25.257142857142856,0.025806008946913116
25.37142857142857,0.02550436404367668
25.485714285714284,0.025361913022514043
25.599999999999998,0.025323100047218217
25.71428571428571,0.025332374001935817
25.82857142857143,0.025339154697374335
25.942857142857143,0.025302460697796306
26.057142857142857,0.025197945133262272
26.17142857142857,0.025025119373190057
26.285714285714285,0.024808646703498125
26.4,0.02458898235349183
26.514285714285712,0.024404265198705304
26.628571428571426,0.024272337947193474
26.742857142857144,0.02418312384154283
26.857142857142858,0.024105390409516324
26.97142857142857,0.02400233738223848
27.085714285714285,0.0238447205477884
27.2,0.023612988751534593
27.314285714285713,0.023289255506090276
27.428571428571427,0.022848649199012618
27.54285714285714,0.02226077237847282
27.657142857142855,0.02150451993937034
27.771428571428572,0.020588939421964818
27.885714285714286,0.0195670411378613
28.0,0.018532576931381765
28.114285714285714,0.017599341801525368
28.228571428571428,0.0168719375786451
28.34285714285714,0.0164205986740516
28.457142857142856,0.016269481125354614
28.57142857142857,0.01640065613847412
28.685714285714283,0.016769027288785286
28.8,0.0173194238783125
28.914285714285715,0.017997381404738562
29.02857142857143,0.018749392180648642
29.142857142857142,0.019515087476202193
29.257142857142856,0.020219682845286344
29.37142857142857,0.020776239392964118
29.485714285714284,0.02110200304312639
29.599999999999998,0.021143741486265213
29.71428571428571,0.02089970397396963
29.82857142857143,0.02042610389164557
29.942857142857143,0.0198241889243186
30.057142857142857,0.01921439824447219
30.17142857142857,0.018709554254777196
30.285714285714285,0.01839640793154594
30.4,0.018327407965834437
30.514285714285712,0.018518661266363225
30.628571428571426,0.018949685457335136
30.74285714285714,0.019564503734475453
30.857142857142858,0.02027733565066927
30.97142857142857,0.02098597648597641
31.085714285714285,0.02159203387500915
31.2,0.022022616224076724
31.314285714285713,0.022246065915804338
31.428571428571427,0.022275946055849594
31.54285714285714,0.022161557677914764
31.657142857142855,0.021967918217670808
31.77142857142857,0.021751955658162868
31.885714285714286,0.021543607255516475
32.0,0.021339439590233288
32.114285714285714,0.02111171597037392
32.22857142857143,0.020828749812028195
32.34285714285714,0.020476339478364976
32.457142857142856,0.020068994362933416
32.57142857142857,0.019644988015372972
32.68571428571428,0.019248343629225305
32.8,0.018908207867385722
32.91428571428571,0.018627094049697118
33.028571428571425,0.018383699136476077
33.14285714285714,0.018147382888024102
33.25714285714285,0.0178953988022987
33.371428571428574,0.017623716468474455
33.48571428571429,0.017346888266389485
33.6,0.01708841242342972
33.714285714285715,0.01686719809426458
33.82857142857143,0.016686810264200186
33.94285714285714,0.016532641097131623
34.05714285714286,0.016378967754458646
34.17142857142857,0.01620377324241837
34.285714285714285,0.01600516571504553
34.4,0.015810900498128014
34.51428571428571,0.01567388465686781
34.628571428571426,0.015652391258371486
34.74285714285714,0.015781995055559852
34.857142857142854,0.01605233870808585
34.97142857142857,0.016401242113971485
35.08571428571428,0.01673058758043198
35.199999999999996,0.016937185114534174
35.31428571428572,0.01694434429534655
35.42857142857143,0.016720721164231133
35.542857142857144,0.016281109601340632
35.65714285714286,0.01567351287855372
35.77142857142857,0.014962071551052546
35.885714285714286,0.014214037719498095
36.0,0.013493408623344114
36.114285714285714,0.01285862414549968
36.22857142857143,0.012360086133069341
36.34285714285714,0.012035211009958923
36.457142857142856,0.011902003078564807
36.57142857142857,0.011954338876339426
36.68571428571428,0.012162271304665219
36.8,0.01247896864767398
36.91428571428571,0.012853124529409208
37.028571428571425,0.013242718699704902
37.14285714285714,0.013624266728136302
37.25714285714285,0.013992763724348602
37.371428571428574,0.014351835834011792
37.48571428571429,0.014699236610367017
37.6,0.015016178158506421
37.714285714285715,0.015267404551417335
37.82857142857143,0.01541295947612583
37.94285714285714,0.015425910723838273
38.05714285714286,0.015306991306412722
38.17142857142857,0.015088919507945022
38.285714285714285,0.014828476193285553
38.4,0.014589875115874607
38.51428571428571,0.014425899450286104
38.628571428571426,0.014363170188047295
38.74285714285714,0.014395853769194724
38.857142857142854,0.01448929735569266
38.97142857142857,0.01459199548373567
39.08571428571428,0.014651358562177627
39.199999999999996,0.014627170128284815
39.31428571428571,0.014497876546011985
39.42857142857143,0.01425900318761469
39.542857142857144,0.013917665751766096
39.65714285714286,0.013488929237067914
39.77142857142857,0.012997080972508535
39.885714285714286,0.012479658487386462
40.0,0.011988431685245535
40.114285714285714,0.011582518479044748
40.22857142857143,0.011313942368960815
40.34285714285714,0.011211616313869402
40.457142857142856,0.011271899382993267
40.57142857142857,0.011460844054081864
40.68571428571428,0.011726847871113874
40.8,0.012016768233769064
40.91428571428571,0.012287373262713801
41.028571428571425,0.012507998804192797
41.14285714285714,0.012656521903480647
41.25714285714285,0.012714740930305135
41.371428571428574,0.012668357431516227
41.48571428571429,0.012512218600926783
41.6,0.012257086408315127
41.714285714285715,0.01193299142505059
41.82857142857143,0.011586329684005763
41.94285714285714,0.011271151726095772
42.05714285714286,0.011037488041703533
42.17142857142857,0.010920390505606427
42.285714285714285,0.010933000824426012
42.4,0.011065735289549468
42.51428571428571,0.011291689735201199
42.628571428571426,0.011575984633366187
42.74285714285714,0.011884995391050186
42.857142857142854,0.01219145875693015
42.97142857142857,0.012473759923423835
43.08571428571428,0.012711277949338913
43.199999999999996,0.01288032912493294
43.31428571428571,0.012955028275827972
43.42857142857143,0.012914110628841303
43.542857142857144,0.012750504120366619
43.65714285714286,0.012478187890828722
43.77142857142857,0.012132198303220165
43.885714285714286,0.011761488210540533
44.0,0.011417947386285973
44.114285714285714,0.011146061453037447
44.22857142857143,0.010976326379345251
44.34285714285714,0.010923196394508393
44.457142857142856,0.010986577088154452
44.57142857142857,0.01115515991414243
44.68571428571428,0.011409936527289562
44.8,0.011726799661158456
44.91428571428571,0.01207818709049401
45.028571428571425,0.012434825333007564
45.14285714285714,0.012768826915402485
45.25714285714285,0.013058120820175462
45.37142857142857,0.013290264196401766
45.48571428571429,0.013462944949603622
45.6,0.013580110541745065
45.714285714285715,0.013645740730310054
45.82857142857143,0.013659354782701486
45.94285714285714,0.01361650632353387
46.05714285714286,0.013514174490273787
46.17142857142857,0.01335753153181238
46.285714285714285,0.013163506821483754
46.4,0.012958485355972745
46.51428571428571,0.01277090218894272
46.628571428571426,0.012622189257002994
46.74285714285714,0.012520099228414234
46.857142857142854,0.012456984527920326
46.97142857142857,0.012413310701476924
47.08571428571428,0.012364769755106177
47.199999999999996,0.012290432654640316
47.31428571428571,0.012179344822245381
47.42857142857143,0.012033478457215138
47.542857142857144,0.011865876783251357
47.65714285714286,0.011694257156023874
47.77142857142857,0.011532189891773455
47.885714285714286,0.011381567862491039
48.0,0.011230358204999348
48.114285714285714,0.011057859133164536
48.22857142857143,0.010846244211597763
48.34285714285714,0.010593628042343203
48.457142857142856,0.010322245639603312
48.57142857142857,0.010076883925796525
48.68571428571428,0.009913067765917494
48.8,0.009879621441858251
48.91428571428571,0.010003331366967667
49.028571428571425,0.010282605506376705
49.14285714285714,0.010692406981159055
49.25714285714285,0.011196673373360251
49.37142857142857,0.011760319874295606
49.48571428571429,0.012353376154264718
49.6,0.012945005930178369
49.714285714285715,0.01349235649380464
49.82857142857143,0.013933914044207043
49.94285714285714,0.014195746871886903
50.05714285714286,0.014211698104625425
50.17142857142857,0.01394941478670348
50.285714285714285,0.013429037228855094
50.4,0.012724085511522777
50.51428571428571,0.011943135965501058
50.628571428571426,0.011200598350870271
50.74285714285714,0.010589352466180129
50.857142857142854,0.010165086072819922
50.97142857142857,0.009944726580944713
51.08571428571428,0.009914623134389594
51.199999999999996,0.010041851510202373
51.31428571428571,0.010284127177000803
51.42857142857142,0.010597306509144061
51.542857142857144,0.010941248108594865
51.65714285714286,0.011284174334530274
51.77142857142857,0.011604348333285084
51.885714285714286,0.011888007511022758
52.0,0.012124463883102172
52.114285714285714,0.01230141940658721
52.22857142857143,0.0124037896119962
52.34285714285714,0.012417207874624803
52.457142857142856,0.012334406990485231
52.57142857142857,0.012160950277971132
52.68571428571428,0.011917297010772055
52.8,0.011636279981617786
52.91428571428571,0.0113572595439967
53.028571428571425,0.011119313021747642
53.14285714285714,0.010955495445796272
53.25714285714285,0.010888931665318667
53.37142857142857,0.010930183195583096
53.48571428571429,0.01107488124606315
53.6,0.011301398161931306
53.714285714285715,0.01156983766887745
53.82857142857143,0.011824702323078987
53.94285714285714,0.012003167511785776
54.05714285714286,0.012048700277238443
54.17142857142857,0.01192665717832781
54.285714285714285,0.011636143313183814
54.4,0.011212525118923355
54.51428571428571,0.01071825021247854
54.628571428571426,0.01022486787384547
54.74285714285714,0.009793575464443325
54.857142857142854,0.00946245821469681
54.97142857142857,0.009245079003299546
55.08571428571428,0.009139162434357185
