Frequency,PSD
6.0,0.4177257323916578
6.08,0.4179943030166391
6.16,0.4185324517731779
6.24,0.41934235646349804
6.32,0.4204276673850167
6.4,0.421793904534212
6.48,0.4234488888421034
6.5600000000000005,0.4254031360224627
6.640000000000001,0.4276701383456422
6.72,0.4302664639390362
6.8,0.4332116147594405
6.88,0.4365276022739205
6.96,0.4402382227264807
7.04,0.4443680399182207
7.12,0.4489411107560467
7.2,0.4539795154349885
7.28,0.45950177805878734
7.36,0.4655212829352251
7.44,0.47204480503869967
7.5200000000000005,0.4790712787635458
7.6000000000000005,0.4865909259286988
7.68,0.4945848512362944
7.76,0.5030251907182419
7.84,0.5118758664369593
7.92,0.5210939599212497
8.0,0.5306316694837407
8.08,0.5404387655856526
8.16,0.5504654075731085
8.24,0.5606651388896621
8.32,0.5709978411274994
8.4,0.5814324047863761
8.48,0.5919488705030292
8.56,0.6025398117151535
8.64,0.6132107693950963
8.72,0.6239796106188362
8.8,0.6348747619359096
8.88,0.6459323600681011
8.96,0.6571924587227287
9.040000000000001,0.6686945222849581
9.120000000000001,0.6804725154559985
9.200000000000001,0.6925499537469876
9.28,0.7049353060126723
9.36,0.7176181324284989
9.44,0.7305662983199156
9.52,0.7437245285572553
9.6,0.757014464939952
9.68,0.7703362692853434
9.76,0.7835716891302664
9.84,0.7965883832906172
9.92,0.8092452027947595
10.0,0.8213980488935573
10.08,0.8329058909708105
10.16,0.8436365264794559
10.24,0.8534717016376852
10.32,0.8623112806988371
10.4,0.8700762449995709
10.48,0.8767104102421909
10.56,0.8821808601243191
10.64,0.8864771953983518
10.72,0.8896097802553836
10.8,0.8916072257442332
10.88,0.8925133791719562
10.96,0.8923840889460299
11.040000000000001,0.8912839891600942
11.120000000000001,0.8892835030099171
11.200000000000001,0.8864562061411667
11.28,0.8828766282103544
11.36,0.8786185108571419
11.44,0.8737534892834127
11.52,0.8683501272036134
11.6,0.8624732133893684
11.68,0.8561832225113836
11.76,0.8495358516964541
11.84,0.8425815639373352
11.92,0.8353650961419984
12.0,0.8279249188829341
12.08,0.8202926628322388
12.16,0.8124925502238706
12.24,0.8045408862598796
12.32,0.7964456740499971
12.4,0.7882064173318472
12.48,0.7798141685700233
12.56,0.7712518673526952
12.64,0.7624949968819145
12.72,0.7535125664674678
12.8,0.7442684068997112
12.88,0.7347227448629968
12.96,0.7248340034565313
13.040000000000001,0.7145607595539949
13.120000000000001,0.7038637761568588
13.200000000000001,0.692708019935891
13.280000000000001,0.681064571486014
13.36,0.6689123388601523
13.44,0.6562394937639432
13.52,0.6430445640077951
13.6,0.6293371345511339
13.68,0.6151381313747462
13.76,0.6004796857252687
13.84,0.5854045990125525
13.92,0.5699654488368721
14.0,0.5542233925765977
14.08,0.5382467354801985
14.16,0.5221093347580106
14.24,0.505888909985942
14.32,0.48966532414247727
14.4,0.4735188902670213
14.48,0.45752874780313746
14.56,0.44177134191596074
14.64,0.4263190298928587
14.72,0.4112388320703666
14.8,0.3965913408509062
14.88,0.3824297999046834
14.96,0.3687993656950832
15.040000000000001,0.3557365638134488
15.120000000000001,0.34326895202103913
15.200000000000001,0.3314149993704838
15.280000000000001,0.3201841857724471
15.36,0.3095773189249672
15.44,0.29958705626296944
15.52,0.29019860962332483
15.6,0.28139060103848634
15.68,0.2731360308604969
15.76,0.26540331540862777
15.84,0.258157351176557
15.92,0.25136056635824433
16.0,0.2449739274436128
16.080000000000002,0.23895787773881821
16.16,0.23327319437702596
16.240000000000002,0.22788175911715786
16.32,0.2227472445936018
16.4,0.21783572074591867
16.48,0.21311618561862156
16.56,0.20856102096613896
16.64,0.20414636715498746
16.72,0.19985240522103748
16.8,0.19566352832491257
16.88,0.1915683818766858
16.96,0.18755975251618573
17.04,0.18363429156487843
17.12,0.179792068380798
17.2,0.17603596234679272
17.28,0.17237091743698532
17.36,0.16880309842470267
17.44,0.16533900065731988
17.52,0.1619845739491133
17.6,0.1587444240375402
17.68,0.15562115143849808
17.76,0.1526148775014263
17.84,0.14972299194098543
17.92,0.1469401367777073
18.0,0.14425842063008065
18.080000000000002,0.141667837046293
18.16,0.13915684331017436
18.240000000000002,0.13671304375254847
18.32,0.1343239152492567
18.400000000000002,0.13197751271450017
18.48,0.1296630986284531
18.56,0.1273716518907629
18.64,0.12509622596307726
18.72,0.12283214247056148
18.8,0.12057702227411828
18.88,0.11833066982921431
18.96,0.11609483716148244
19.04,0.11387290029852332
19.12,0.11166948335558069
19.2,0.10949006405343342
19.28,0.10734059002724383
19.36,0.1052271288885204
19.44,0.1031555677257924
19.52,0.10113137058381598
19.6,0.09915939624492728
19.68,0.0972437738596757
19.76,0.09538783083539323
19.84,0.09359406580496679
19.92,0.09186415916042512
20.0,0.09019901411701566
20.080000000000002,0.08859882211370865
20.16,0.08706314715385044
20.240000000000002,0.08559102416569679
20.32,0.08418106649448324
20.400000000000002,0.08283157726221206
20.48,0.08154065871772442
20.56,0.08030631310178142
20.64,0.07912652824967335
20.72,0.07799934139399217
20.8,0.07692287557682197
20.88,0.07589534478270152
20.96,0.07491502628343225
21.04,0.07398020154782901
21.12,0.07308907012886667
21.2,0.07223964386328333
21.28,0.07142963116783217
21.36,0.07065632289801063
21.44,0.06991649193529013
21.52,0.06920631827929491
21.6,0.06852134994941364
21.68,0.06785650756476098
21.76,0.06720613728468225
21.84,0.06656411313319978
21.92,0.06592398591374156
22.0,0.06527917226107025
22.080000000000002,0.06462317416478086
22.16,0.06394981677285785
22.240000000000002,0.06325349062028698
22.32,0.06252938373107647
22.400000000000002,0.06177368934518112
22.48,0.060983776290675806
22.56,0.060158311162303545
22.64,0.05929732433539465
22.72,0.05840221525198053
22.8,0.05747569614309545
22.88,0.0565216771532147
22.96,0.05554509945215025
23.04,0.05455172610014623
23.12,0.0535479029349278
23.2,0.0525403033743144
23.28,0.05153567163239347
23.36,0.05054057836691028
23.44,0.04956120123893257
23.52,0.04860314040104261
23.6,0.047671275760527376
23.68,0.04676966929132341
23.76,0.04590151204488077
23.84,0.04506911219973799
23.92,0.04427391782519607
24.0,0.0435165662750666
24.080000000000002,0.042796951422887745
24.16,0.04211430031860275
24.240000000000002,0.041467252170159334
24.32,0.040853934590918434
24.400000000000002,0.040272034473484195
24.48,0.03971886327622572
24.560000000000002,0.03919141857255801
24.64,0.03868644510884911
24.72,0.03820049914470794
24.8,0.03773001944482854
24.88,0.03727140703448224
24.96,0.03682111393322939
25.04,0.03637573885538605
25.12,0.03593212567613205
25.2,0.03548745867189777
25.28,0.03503934746029367
25.36,0.03458589439472696
25.44,0.03412573798786936
25.52,0.03365806768081025
25.6,0.03318260774488074
25.68,0.03269957100184594
25.76,0.032209586016623035
25.84,0.03171360408520914
25.92,0.031212794378337717
26.0,0.030708436759147927
26.080000000000002,0.030201821933152663
26.16,0.029694167699399053
26.240000000000002,0.029186558265052003
26.32,0.02867991107928616
26.400000000000002,0.028174972729302368
26.48,0.027672342451215935
26.560000000000002,0.027172519067729287
26.64,0.02667596495699858
26.72,0.026183179194406592
26.8,0.025694771408751645
26.88,0.025211528172459294
26.96,0.0247344648193964
27.04,0.024264857288576608
27.12,0.023804250703598224
27.2,0.02335444366336602
27.28,0.022917449389545336
27.36,0.02249543673272162
27.44,0.02209065542123094
27.52,0.021705350755184847
27.6,0.021341673192222195
27.68,0.02100158800300614
27.76,0.02068678951397078
27.84,0.020398623559574496
27.92,0.02013802080398234
28.0,0.01990544271426331
28.080000000000002,0.01970084128608954
28.16,0.019523633195589477
28.240000000000002,0.019372688872478845
28.32,0.019246336997239537
28.400000000000002,0.019142385012470488
28.48,0.01905815627738578
28.560000000000002,0.018990544360674867
28.64,0.018936084566664013
28.72,0.018891042080146393
28.8,0.018851515117432084
28.88,0.018813550271467923
28.96,0.018773265978502363
29.04,0.018726978888374504
29.12,0.018671327071987136
29.2,0.018603383605871264
29.28,0.01852075424100973
29.36,0.01842165362509704
29.44,0.018304955856593284
29.52,0.018170216880183034
29.6,0.01801766820032695
29.68,0.017848183371732773
29.76,0.01766322049965094
29.84,0.017464745356149752
29.92,0.017255140556252567
30.0,0.01703710648167541
30.080000000000002,0.01681355931400747
30.16,0.016587530743195078
30.240000000000002,0.01636207280821357
30.32,0.016140170092844852
30.400000000000002,0.015924660329889234
30.48,0.015718163524079596
30.560000000000002,0.015523019100029446
30.64,0.01534123036622344
30.72,0.015174415742903753
30.8,0.015023766655442193
30.88,0.014890012627109053
30.96,0.01477339477506695
31.04,0.014673649479829617
31.12,0.014590004340321754
31.2,0.014521188558987068
31.28,0.014465459584426172
31.36,0.014420647181180739
31.44,0.014384215150140293
31.52,0.014353339777086497
31.6,0.014325002853306457
31.68,0.014296095913970169
31.76,0.014263531297611523
31.84,0.014224354850270036
31.92,0.014175854663952719
32.0,0.014115660204254601
32.08,0.014041826564980136
32.160000000000004,0.013952899371294175
32.24,0.01384795698523799
32.32,0.013726628065085962
32.4,0.013589084084642015
32.480000000000004,0.013436008005287199
32.56,0.01326854178160298
32.64,0.013088216645729858
32.72,0.012896871049503315
32.8,0.012696561669341246
32.88,0.01248947295765197
32.96,0.012277830360638545
33.04,0.012063821564406751
33.12,0.011849529067768778
33.2,0.011636876129946388
33.28,0.011427586840509749
33.36,0.011223159844417026
33.44,0.011024854248961425
33.52,0.010833685533958498
33.6,0.0106504289333096
33.68,0.01047562776081036
33.76,0.010309604476149814
33.84,0.010152472850479025
33.92,0.01000415029037685
34.0,0.009864370099111118
34.08,0.009732694084952486
34.160000000000004,0.009608526378591734
34.24,0.009491129538285249
34.32,0.009379643983433524
34.4,0.009273111524900707
34.480000000000004,0.009170503306799988
34.56,0.009070751916186413
34.64,0.008972786840688125
34.72,0.008875571942776276
34.800000000000004,0.008778143240742334
34.88,0.008679645084180052
34.96,0.008579362801308
35.04,0.008476750065132026
35.12,0.00837144954122309
35.2,0.008263305793861494
35.28,0.008152369886589707
35.36,0.008038895569157933
35.44,0.007923327357413561
35.52,0.007806281162381495
35.6,0.0076885184008945425
35.68,0.0075709147261553535
35.76,0.00745442466359571
35.84,0.007340043538676881
35.92,0.007228768149418006
36.0,0.00712155767227882
36.08,0.0070192962930799435
36.160000000000004,0.006922759016694391
36.24,0.006832582018693433
36.32,0.006749238748264586
36.4,0.006673022768292526
36.480000000000004,0.006604038027067748
36.56,0.006542196907279623
36.64,0.006487226011564784
36.72,0.006438679246658479
36.800000000000004,0.00639595739084956
36.88,0.006358333002630579
36.96,0.006324979278984797
37.04,0.006295001319396025
37.12,0.00626746820688235
37.2,0.006241444380402456
37.28,0.006216018934373323
37.36,0.006190331722707138
37.44,0.0061635954424830615
37.52,0.006135113198060142
37.6,0.006104291371166096
37.68,0.006070647918953507
37.76,0.006033816466987879
37.84,0.005993546740453502
37.92,0.005949701974928421
38.0,0.005902253966609761
38.08,0.0058512763681810775
38.160000000000004,0.0057969367255916076
38.24,0.005739487604217407
38.32,0.0056792569952939485
38.4,0.005616638051223475
38.480000000000004,0.005552078094918186
38.56,0.005486066801640821
38.64,0.0054191234713061205
38.72,0.005351783394227866
38.800000000000004,0.005284583452622874
38.88,0.0052180472731767485
38.96,0.005152670425157093
39.04,0.005088906313408007
39.12,0.005027153516940903
39.2,0.004967745348502223
39.28,0.004910942344908818
39.36,0.00485692824082742
39.44,0.0048058097417872985
39.52,0.0047576201192690674
39.6,0.004712326334355083
39.68,0.0046698390939723874
39.76,0.004630024991948206
39.84,0.004592719717091583
39.92,0.004557741243350483
40.0,0.004524901960955691
40.08,0.00449401885640387
40.160000000000004,0.004464921084144599
40.24,0.004437454564601086
40.32,0.00441148355611314
40.4,0.00438688944585612
40.480000000000004,0.004363567253655798
40.56,0.004341420517816651
40.64,0.004320355319351722
40.72,0.004300274198285671
40.800000000000004,0.00428107063263869
40.88,0.004262624606476656
40.96,0.004244799613478132
41.04,0.004227441254448334
41.12,0.004210377416764008
41.2,0.0041934198910088035
41.28,0.0041763671970473796
41.36,0.004159008361202042
41.44,0.004141127401690713
41.52,0.004122508327429348
41.6,0.004102940517464321
41.68,0.004082224405377206
41.76,0.004060177427994242
41.84,0.004036640199012766
41.92,0.004011482831576701
42.0,0.003984611263294822
42.08,0.0039559733443723585
42.160000000000004,0.003925564351533843
42.24,0.0038934315073489234
42.32,0.0038596770357752835
42.4,0.0038244592857526
42.480000000000004,0.0037879915143700484
42.56,0.003750538040082417
42.64,0.0037124076465501693
42.72,0.003673944323162588
42.800000000000004,0.003635515647751231
42.88,0.0035974993264845144
42.96,0.0035602685820539754
43.04,0.003524177204438572
43.12,0.003489545135285316
43.2,0.003456645441488088
43.28,0.0034256934480377628
43.36,0.003396838654151982
43.44,0.003370159865177559
43.52,0.0033456637544605154
43.6,0.003323286844104196
43.68,0.0033029006800280435
43.76,0.0032843197909586484
43.84,0.0032673118748633313
43.92,0.0032516095572888547
44.0,0.003236923017013076
44.08,0.0032229527742392346
44.160000000000004,0.0032094019809069535
44.24,0.0031959876347165475
44.32,0.0031824502497001996
44.4,0.003168561647214083
44.480000000000004,0.003154130672181118
44.56,0.003139006780469456
44.64,0.003123081575028934
44.72,0.003106288482204317
44.800000000000004,0.003088600848166539
44.88,0.0030700287931247853
44.96,0.0030506151846219215
45.04,0.003030431080388446
45.12,0.003009570948593358
45.2,0.002988147904826018
45.28,0.002966289119620087
45.36,0.002944131458995679
45.44,0.0029218173357795692
45.52,0.0028994906837435334
45.6,0.0028772929305854924
45.68,0.0028553588469237574
45.76,0.002833812189677841
45.84,0.002812761136731269
45.92,0.0027922936170930116
46.0,0.002772472762885758
46.08,0.0027533328283279104
46.160000000000004,0.002734876016255265
46.24,0.0027170707050384706
46.32,0.002699851561759007
46.4,0.002683121951168859
46.480000000000004,0.002666758902526035
46.56,0.0026506206858001487
46.64,0.0026345567924595907
46.72,0.0026184198399465883
46.800000000000004,0.002602078654450231
46.88,0.0025854315671759373
46.96,0.0025684188160643787
47.04,0.0025510329023447145
47.12,0.002533325823558495
47.2,0.002515412293027739
47.28,0.002497468347649103
47.36,0.0024797251159059536
47.44,0.002462457930369061
47.52,0.0024459713818239005
47.6,0.0024305812824710303
47.68,0.0024165947944929447
47.76,0.00240429015764914
47.84,0.0023938974979030407
47.92,0.00238558211528685
48.0,0.0023794314446378036
48.08,0.0023754465814433516
48.160000000000004,0.002373538900073951
48.24,0.0023735319011109098
48.32,0.002375168046350653
48.4,0.002378120007854676
48.480000000000004,0.002382005496557524
48.56,0.0023864046616210027
48.64,0.0023908789681889933
48.72,0.0023949904627290283
48.800000000000004,0.00239832040814807
48.88,0.0024004863968707206
48.96,0.0024011572089487065
49.04,0.002400064855216655
49.120000000000005,0.002397013417487822
49.2,0.0023918844586001166
49.28,0.0023846389200692444
49.36,0.002375315553956557
49.44,0.002364026051294866
49.52,0.0023509471364214878
49.6,0.002336309998610883
49.68,0.0023203875313141525
49.76,0.002303479943807779
49.84,0.0022858993956505202
49.92,0.0022679543736542525
50.0,0.0022499345750781434
50.08,0.0022320970700945818
50.160000000000004,0.002214654483381987
50.24,0.002197765854035482
50.32,0.0021815307041572925
50.4,0.0021659866736474347
50.480000000000004,0.0021511108710538414
50.56,0.0021368248614372053
50.64,0.002123002978936337
50.72,0.0021094834326269678
50.800000000000004,0.0020960814877299568
50.88,0.0020826038665056577
50.96,0.002068863436702293
51.04,0.0020546932473957877
51.120000000000005,0.002039959033591117
51.2,0.0020245694368748075
51.28,0.00200848336867716
51.36,0.0019917141594908393
51.44,0.001974330372664316
51.52,0.0019564533947350263
51.6,0.0019382521260357874
51.68,0.0019199352684462576
51.76,0.0019017418289315937
51.84,0.0018839305205823817
51.92,0.001866768746017107
52.0,0.0018505217958662574
52.08,0.0018354427976555437
52.160000000000004,0.0018217638216666814
52.24,0.0018096884066907699
52.32,0.0017993856267781768
52.4,0.0017909856955457357
52.480000000000004,0.0017845770094616388
52.56,0.001780204473454377
52.64,0.0017778689334067843
52.72,0.0017775275573238963
52.800000000000004,0.0017790950519150014
52.88,0.001782445661903491
52.96,0.0017874159613673205
53.04,0.001793808495590076
53.120000000000005,0.0018013963560594088
53.2,0.0018099287621817705
53.28,0.0018191376780543698
53.36,0.0018287454143380618
53.44,0.0018384730627077524
53.52,0.0018480494969782928
53.6,0.001857220567082628
53.68,0.0018657580262806213
53.76,0.001873467682923346
53.84,0.0018801962660365827
53.92,0.0018858365431257437
54.0,0.0018903303263211849
54.08,0.0018936691400500412
54.160000000000004,0.001895892485271986
54.24,0.001897083804145547
54.32,0.0018973644062835913
54.4,0.0018968857470779863
54.480000000000004,0.0018958205377323347
54.56,0.0018943532094577078
54.64,0.0018926702510378788
54.72,0.001890950896047222
54.800000000000004,0.001889358564405283
54.88,0.0018880333761769137
54.96,0.0018870859671096872
55.04,0.0018865927565826432
