Frequency,PSD
6.0,0.48877889430336613
6.08,0.48546595243481566
6.16,0.47935038616919956
6.24,0.471332271642837
6.32,0.4625015166460672
6.4,0.4539240575056946
6.48,0.44647789862261816
6.5600000000000005,0.44077670596629126
6.640000000000001,0.43717961708548714
6.72,0.4358501636916612
6.8,0.43681112287893814
6.88,0.43995581721762045
6.96,0.4450163338264147
7.04,0.4515346676032953
7.12,0.45890334145258194
7.2,0.46651581459089875
7.28,0.4740001655801887
7.36,0.4814392926018666
7.44,0.4894544641982965
7.5200000000000005,0.4990714005474631
7.6000000000000005,0.5113823516867572
7.68,0.5271147693695125
7.76,0.5462667249972804
7.84,0.5679484607309433
7.92,0.5904918563304166
8.0,0.6117926833769697
8.08,0.629775268919497
8.16,0.642842275753414
8.24,0.6501963293738889
8.32,0.6519746297654366
8.4,0.6491920240444227
8.48,0.6435220867984628
8.56,0.6369620007027912
8.64,0.6314425809101142
8.72,0.6284684666573255
8.8,0.6288904458316047
8.88,0.632894151081026
8.96,0.6402251644500546
9.040000000000001,0.6505827862961504
9.120000000000001,0.6640472460009759
9.200000000000001,0.6813875023067941
9.28,0.7041225182332258
9.36,0.7342516250656528
9.44,0.7736218149674134
9.52,0.8229897645824752
9.6,0.8809927279293499
9.68,0.9434289510748849
9.76,1.0033367907990036
9.84,1.05219897614829
9.92,1.0821446866926676
10.0,1.0884525333308381
10.08,1.0713099329100064
10.16,1.0359457500825906
10.24,0.9909283783106138
10.32,0.9452783200635168
10.4,0.9056057791333714
10.48,0.8744375916434086
10.56,0.85029212993293
10.64,0.8292501086013976
10.72,0.807174028200419
10.8,0.7815953561697839
10.88,0.7525947891484162
10.96,0.7225273881166017
11.040000000000001,0.6949219027847755
11.120000000000001,0.6731250381665541
11.200000000000001,0.6592233755028037
11.28,0.6535441824628554
11.36,0.6547586376733082
11.44,0.6604124548948077
11.52,0.6676387220961475
11.6,0.6738384351094286
11.68,0.677184862030955
11.76,0.6768740155521801
11.84,0.6730971876149426
11.92,0.6667654418525849
12.0,0.659074539174178
12.08,0.6510449046171178
12.16,0.6431791518118131
12.24,0.6353386367128565
12.32,0.6268659669518106
12.4,0.6169026441422998
12.48,0.6047938704410976
12.56,0.590443661274277
12.64,0.5744841408022621
12.72,0.5581621225480466
12.8,0.5429352031077306
12.88,0.529897118516184
12.96,0.5192650225608102
13.040000000000001,0.5101839763619367
13.120000000000001,0.5009918472571475
13.200000000000001,0.48987511073804346
13.280000000000001,0.4756406976350168
13.36,0.4582505021529586
13.44,0.43886691297092273
13.52,0.41939029294577324
13.6,0.4017091956782577
13.68,0.3870069014023052
13.76,0.37541798336330756
13.84,0.3661445356636875
13.92,0.3579265478810228
14.0,0.34962085336885307
14.08,0.3406320547018787
14.16,0.3310403668304113
14.24,0.3214211213128383
14.32,0.3124779279640023
14.4,0.30467057091327
14.48,0.2979985372624033
14.56,0.2920189868612378
14.64,0.28607034642599055
14.72,0.2795848349153668
14.8,0.2723435504926122
14.88,0.26456811870675717
14.96,0.25682853994033505
15.040000000000001,0.2498292167968234
15.120000000000001,0.24417258796509345
15.200000000000001,0.24018350854401513
15.280000000000001,0.23783180903091572
15.36,0.23674930687214235
15.44,0.23631886096205812
15.52,0.2358116018006201
15.6,0.23454900646410745
15.68,0.23206142092600232
15.76,0.2282094771624156
15.84,0.22323916983312028
15.92,0.21775676730787702
16.0,0.21262782035218908
16.080000000000002,0.20881611368001682
16.16,0.20718348821705274
16.240000000000002,0.20827846017496415
16.32,0.21215577835719815
16.4,0.21828257598282313
16.48,0.22558182939105167
16.56,0.23262872847020927
16.64,0.23795894259987738
16.72,0.2403973630627991
16.8,0.23930117762923228
16.88,0.2346431886625641
16.96,0.226925172509085
17.04,0.21697509067548468
17.12,0.20571621725962308
17.2,0.19398829130968015
17.28,0.18246021881328367
17.36,0.17162508489720563
17.44,0.16183653458794534
17.52,0.15334352615981361
17.6,0.1463023478952869
17.68,0.14077200860890265
17.76,0.136713095414451
17.84,0.1340042243029867
17.92,0.13247226760749362
18.0,0.13191800785008237
18.080000000000002,0.13211915165703658
18.16,0.13280784178357552
18.240000000000002,0.13363963997773623
18.32,0.13418215973129133
18.400000000000002,0.133946352366091
18.48,0.132464008955722
18.56,0.12939157385609526
18.64,0.12460509629442393
18.72,0.11825167039986027
18.8,0.1107385214022341
18.88,0.10266435430979437
18.96,0.09471815334909689
19.04,0.08757974786656604
19.12,0.08185083349671807
19.2,0.07802739370839253
19.28,0.07650184353174107
19.36,0.0775653390825711
19.44,0.0813770337265765
19.52,0.08788346391978683
19.6,0.09670530326992255
19.68,0.10704636355449304
19.76,0.11769800896097299
19.84,0.12719116219090085
19.92,0.13408708243944012
20.0,0.13732359339519845
20.080000000000002,0.13648836139270007
20.16,0.13190756752795865
20.240000000000002,0.12451404291932908
20.32,0.11555371294004047
20.400000000000002,0.10625115121146883
20.48,0.09755435995966678
20.56,0.0900248273196902
20.64,0.08386850253991289
20.72,0.07905363217445062
20.8,0.0754479946618428
20.88,0.07292336653337407
20.96,0.07140175184926453
21.04,0.07084291988430814
21.12,0.07119141902631258
21.2,0.07231279612037114
21.28,0.07395169676593841
21.36,0.07573645777951396
21.44,0.07723629079492868
21.52,0.07805433939801208
21.6,0.07792274591928815
21.68,0.07676304258991579
21.76,0.07468895432415779
21.84,0.07195309807463807
21.92,0.06886240823179472
22.0,0.0656978938822863
22.080000000000002,0.06266750672758122
22.16,0.0599009936871777
22.240000000000002,0.05747422926595727
22.32,0.05543937188979241
22.400000000000002,0.0538409625044073
22.48,0.0527120714173515
22.56,0.05205861335572096
22.64,0.051845619905263776
22.72,0.05199527053099887
22.8,0.052398121196585094
22.88,0.05293288796495503
22.96,0.05348903794009688
23.04,0.05398797538740395
23.12,0.0543989684644257
23.2,0.05474426115194057
23.28,0.05508712523529021
23.36,0.055500704623549474
23.44,0.0560245651909731
23.52,0.05662517880922728
23.6,0.057179535904509256
23.68,0.05749403724987684
23.76,0.05735600864475012
23.84,0.056599813673555835
23.92,0.05516170464753034
24.0,0.05310165246902575
24.080000000000002,0.05058464678548201
24.16,0.047831296445768695
24.240000000000002,0.04505945782793731
24.32,0.0424396778320196
24.400000000000002,0.04007794117222608
24.48,0.0380252277972916
24.560000000000002,0.0363020193433019
24.64,0.03492203417585904
24.72,0.03390350571365114
24.8,0.03326483922525149
24.88,0.0330097482218939
24.96,0.03311136554388729
25.04,0.033504143081833526
25.12,0.03408780543496937
25.2,0.034741916860337084
25.28,0.03534558254441474
25.36,0.03579599165195025
25.44,0.03602151082065934
25.52,0.03598799170473495
25.6,0.03569902891751003
25.68,0.03519158301150957
25.76,0.03452847288204705
25.84,0.03378960580078988
25.92,0.033064194703117215
26.0,0.03244547631162226
26.080000000000002,0.032027074194799096
26.16,0.031897391107152735
26.240000000000002,0.03212766002659731
26.32,0.03275210083247361
26.400000000000002,0.03374420710904894
26.48,0.034998585078963786
26.560000000000002,0.036329661218885534
26.64,0.03749509016264346
26.72,0.0382433183329903
26.8,0.03837433198101211
26.88,0.0377946028773432
26.96,0.036546103961708126
27.04,0.03479702592846548
27.12,0.032796073030258124
27.2,0.03080649254040583
27.28,0.029043178376111874
27.36,0.027632898146876493
27.44,0.02660636459623142
27.52,0.025917923016838082
27.6,0.025480188676303885
27.68,0.02519950671116083
27.76,0.025002038176989042
27.84,0.024846113397985637
27.92,0.024721391627261936
28.0,0.024638314498593487
28.080000000000002,0.024612740518964938
28.16,0.02465114253084665
28.240000000000002,0.024741390277555737
28.32,0.024852442445971956
28.400000000000002,0.02494301284880193
28.48,0.024975299313053662
28.560000000000002,0.024927099191785526
28.64,0.024796023734712083
28.72,0.024593496295927747
28.8,0.024331934305996263
28.88,0.024012694537372162
28.96,0.023622356496000557
29.04,0.023140534541417526
29.12,0.022556088744830772
29.2,0.021883831978057183
29.28,0.021172992117468342
29.36,0.020501918481160546
29.44,0.019959096386934758
29.52,0.019616112966553547
29.6,0.01950185666840421
29.68,0.019587719789454262
29.76,0.019790477799704775
29.84,0.019993457199914036
29.92,0.020079563046469184
30.0,0.01996474004083249
30.080000000000002,0.019620136048833205
30.16,0.01907610276896787
30.240000000000002,0.01840878697320476
30.32,0.01771640558274329
30.400000000000002,0.017094324647371328
30.48,0.016615703909820194
30.560000000000002,0.01632032967928867
30.64,0.01621134468219867
30.72,0.01625897949514838
30.8,0.016410796114201823
30.88,0.016607295014545446
30.96,0.016799321832814133
31.04,0.01696108993942887
31.12,0.01709248189584774
31.2,0.017208174292156375
31.28,0.017317860331575233
31.36,0.017407703439800592
31.44,0.01743407590093706
31.52,0.017335069813826206
31.6,0.017055735065351886
31.68,0.016574949401763156
31.76,0.015920238397685495
31.84,0.01516287000933994
31.92,0.014395591874309579
32.0,0.013703612205412169
32.08,0.013141559164485585
32.160000000000004,0.012724914312910004
32.24,0.012437031775922348
32.32,0.01224642064378006
32.4,0.012125942506022804
32.480000000000004,0.0120660949798559
32.56,0.012077447539603017
32.64,0.012181398525691164
32.72,0.01239290833303023
32.8,0.012702680181575728
32.88,0.013067729983015107
32.96,0.013416838939091388
33.04,0.01367107728792678
33.12,0.013771993666768885
33.2,0.013705262117549424
33.28,0.013508638053232847
33.36,0.013259850958629754
33.44,0.013049092082284986
33.52,0.012947390798874088
33.6,0.01298334197826594
33.68,0.013136339727148342
33.76,0.013347254706157753
33.84,0.013540791052898286
33.92,0.013650190174356237
34.0,0.01363542994636845
34.08,0.013489793565481741
34.160000000000004,0.013234714779863462
34.24,0.012907003170415592
34.32,0.012544476588283091
34.4,0.012175414792649445
34.480000000000004,0.01181483478758156
34.56,0.01146752598970725
34.64,0.011135135976284013
34.72,0.010823165223358409
34.800000000000004,0.010544009577852181
34.88,0.010314194333248924
34.96,0.010146951990677326
35.04,0.010043937388008791
35.12,0.009990757616654484
35.2,0.009959534454366198
35.28,0.009918537344294036
35.36,0.009845522629815903
35.44,0.009739356459811594
35.52,0.009624696599249662
35.6,0.009546922129591738
35.68,0.009558239757381019
35.76,0.009699543971438998
35.84,0.009984672984387499
35.92,0.010393175231357299
36.0,0.01087458350246996
36.08,0.011362671079299749
36.160000000000004,0.011794179377734627
36.24,0.012124845683304275
36.32,0.0123369545312948
36.4,0.012436424726160657
36.480000000000004,0.012441942478431074
36.56,0.012371937366884009
36.64,0.012235866331217
36.72,0.012033943569647624
36.800000000000004,0.011765020581360076
36.88,0.011437797940802236
36.96,0.011078337486324419
37.04,0.010728431759752542
37.12,0.010434227406869251
37.2,0.010229998980842515
37.28,0.010124947814597118
37.36,0.010099620556542364
37.44,0.01011383059076651
37.52,0.010122571514179068
37.6,0.010093147285839876
37.68,0.010016839366583579
37.76,0.009911188495405275
37.84,0.009812659889497269
37.92,0.009762553707401589
38.0,0.009790821912099585
38.08,0.009902930109718168
38.160000000000004,0.010074174424107801
38.24,0.010253928042915144
38.32,0.01037927523579952
38.4,0.010394084351283157
38.480000000000004,0.010267107066603979
38.56,0.010002558395436019
38.64,0.009639359137187893
38.72,0.009239937405716332
38.800000000000004,0.008874248990150806
38.88,0.008607483613306537
38.96,0.008499628397805775
39.04,0.008621570372385244
39.12,0.009086233172966194
39.2,0.010085037350212133
39.28,0.011911060646456497
39.36,0.014943890018865957
39.44,0.019573203177324864
39.52,0.026055126462352276
39.6,0.034328745265600744
39.68,0.04385926918196305
39.76,0.05359612025594446
39.84,0.06211387305739487
39.92,0.06793503054163307
40.0,0.06994207134123671
40.08,0.06772295863761221
40.160000000000004,0.06170411171766346
40.24,0.05301211669353441
40.32,0.04312539510945469
40.4,0.03346303299271787
40.480000000000004,0.025065866058807444
40.56,0.01846016376681274
40.64,0.013702482113960981
40.72,0.010536526551024758
40.800000000000004,0.008574435785556927
40.88,0.0074380233845313835
40.96,0.006834539980911086
41.04,0.006573370684163932
41.12,0.006545288601140084
41.2,0.0066870882328036885
41.28,0.006948750798866552
41.36,0.007273141764622547
41.44,0.007591634200845151
41.52,0.007833289160966853
41.6,0.007940867015109317
41.68,0.00788523330055049
41.76,0.007671491278036942
41.84,0.0073346513224315174
41.92,0.0069275086811050966
42.0,0.00650616800939049
42.08,0.006118312833785508
42.160000000000004,0.00579681461016608
42.24,0.005558546724599152
42.32,0.005406743458824235
42.4,0.005335059602327992
42.480000000000004,0.00533188816109136
42.56,0.005383816833372302
42.64,0.005477352907653165
42.72,0.005598631518774454
42.800000000000004,0.00573186604913423
42.88,0.005858274090772943
42.96,0.005957290604197791
43.04,0.006010683894763277
43.12,0.006008257435635208
43.2,0.0059523510916284885
43.28,0.005858401257380799
43.36,0.005750528422170894
43.44,0.005653589454477754
43.52,0.005584965207161463
43.6,0.005549525518262848
43.68,0.005539659714866906
43.76,0.005539869363867271
43.84,0.005533478743035758
43.92,0.005508476815314573
44.0,0.0054604669729850334
44.08,0.005392426161701779
44.160000000000004,0.00531238446547384
44.24,0.005230522799643308
44.32,0.005156641162314644
44.4,0.005098183002338122
44.480000000000004,0.005058697792286919
44.56,0.005036881454198302
44.64,0.005026667719122231
44.72,0.005018721655766544
44.800000000000004,0.005003068726669906
44.88,0.004971955756360334
44.96,0.0049219071111268175
45.04,0.004854398874940659
45.12,0.004775245034259797
45.2,0.00469320954323808
45.28,0.0046183690480979585
45.36,0.004560535129946005
45.44,0.004527855439755502
45.52,0.004525638290816076
45.6,0.004555429222334604
45.68,0.004614383277737255
45.76,0.004695083586307245
45.84,0.00478615971116465
45.92,0.0048741581109966025
46.0,0.004946806634380735
46.08,0.004997017424609746
46.160000000000004,0.005026080718778473
46.24,0.005044212478368133
46.32,0.005067402656394136
46.4,0.005111153824796603
46.480000000000004,0.005183344238506912
46.56,0.005279146711130002
46.64,0.0053802694841702855
46.72,0.005459094590624207
46.800000000000004,0.005486382521262927
46.88,0.005439891161637773
46.96,0.005310982211317013
47.04,0.005107091545447891
47.12,0.0048494820972577995
47.2,0.004567384494726474
47.28,0.004290805029577823
47.36,0.004044492879882802
47.44,0.003844787717573739
47.52,0.0036997296539146955
47.6,0.0036115220493447044
47.68,0.003579694510657972
47.76,0.003603308983467623
47.84,0.0036811750528632607
47.92,0.003810009629398054
48.0,0.003981462678108658
48.08,0.004179616572675335
48.160000000000004,0.00438067485949838
48.24,0.004555926635386922
48.32,0.0046777954603365035
48.4,0.0047272912092855696
48.480000000000004,0.004700170357057835
48.56,0.004609202879510329
48.64,0.004481309957852682
48.72,0.00435049524554542
48.800000000000004,0.004249520314992834
48.88,0.004204291151477784
48.96,0.00423450027884997
49.04,0.004362284138816289
49.120000000000005,0.004627814883923758
49.2,0.005107160949822682
49.28,0.005923937027563237
49.36,0.007243560257424713
49.44,0.00923989021379152
49.52,0.012031559874028201
49.6,0.015600068492616151
49.68,0.01971910394934044
49.76,0.02393434046754848
49.84,0.027624103317424892
49.92,0.03014085111851847
50.0,0.03099285764867482
50.08,0.029997303836026452
50.160000000000004,0.027340062665952118
50.24,0.023515813629080614
50.32,0.019175060350949628
50.4,0.014942766333800594
50.480000000000004,0.011277132729829442
50.56,0.008408770516841468
50.64,0.0063601290554231305
50.72,0.005014986674757513
50.800000000000004,0.0041993098827494
50.88,0.0037446277143744766
50.96,0.003522119639973037
51.04,0.003449784040278972
51.120000000000005,0.003482114890372215
51.2,0.0035926994189421774
51.28,0.0037580352024516733
51.36,0.003947858437801655
51.44,0.004124132681243842
51.52,0.00424768034415348
51.6,0.004288679427157695
51.68,0.004235833587086461
51.76,0.004099755957337799
51.84,0.003908846610557078
51.92,0.003699418220917093
52.0,0.0035042935471809016
52.08,0.003344397767769793
52.160000000000004,0.0032260662729940645
52.24,0.0031440203209977605
52.32,0.003087663201511758
52.4,0.003047461987210993
52.480000000000004,0.0030188117462384007
52.56,0.003002356722622626
52.64,0.0030014300488354073
52.72,0.0030183732588059953
52.800000000000004,0.003051687309825529
52.88,0.003095340576453687
52.96,0.0031405019670509727
53.04,0.0031789447917866375
53.120000000000005,0.0032067232751822362
53.2,0.0032265901409556617
53.28,0.0032479692492958998
53.36,0.003284035513724144
53.44,0.003346476023913603
53.52,0.0034395887497415314
53.6,0.003556091736515361
53.68,0.003676845546291773
53.76,0.003775379372746024
53.84,0.0038260322131191543
53.92,0.003812670151529182
54.0,0.0037343993347753457
54.08,0.0036058887196289274
54.160000000000004,0.0034522645247021116
54.24,0.003300798905492726
54.32,0.003172693454603127
54.4,0.0030778332688312132
54.480000000000004,0.0030139355419078295
54.56,0.0029698337572963028
54.64,0.0029313380010269176
54.72,0.002887455846175046
54.800000000000004,0.0028347878080674494
54.88,0.002778593904817241
54.96,0.0027302350357104083
55.04,0.002702088702245184
