Frequency,PSD
6.0,0.36567573523368874
6.08,0.369928656881173
6.16,0.37616540538207743
6.24,0.38081748132095095
6.32,0.3807416332419743
6.4,0.3749990733013263
6.48,0.3656639501964003
6.5600000000000005,0.3570760572942482
6.640000000000001,0.35396752352656835
6.72,0.3596017256951061
6.8,0.3749027669036232
6.88,0.3987754082343245
6.96,0.4290398674719001
7.04,0.46310894132649943
7.12,0.4979083655682961
7.2,0.5293753004795904
7.28,0.5524734926649408
7.36,0.5623613730516426
7.44,0.5562972422794833
7.5200000000000005,0.5350649628880402
7.6000000000000005,0.502953126625872
7.68,0.46635487481990356
7.76,0.431899232624962
7.84,0.4050260705942331
7.92,0.3892806812257542
8.0,0.3860464702187951
8.08,0.3944384989330365
8.16,0.4114551100578381
8.24,0.4326499926977343
8.32,0.453299275214909
8.4,0.46966634331657625
8.48,0.47993935322134146
8.56,0.484629112815226
8.64,0.48628795712297124
8.72,0.48838285163393547
8.8,0.4934656325386027
8.88,0.5014553336402964
8.96,0.5091773342727536
9.040000000000001,0.5116988760525825
9.120000000000001,0.5048448425321259
9.200000000000001,0.4875434392257847
9.28,0.46280984523485647
9.36,0.43689844283315343
9.44,0.41695446566677064
9.52,0.4081622970495899
9.6,0.4117327258881456
9.68,0.42476111196462196
9.76,0.4419640267777797
9.84,0.45817001058206325
9.92,0.4700825095411637
10.0,0.4765495258696173
10.08,0.47774188805336004
10.16,0.47428500940915064
10.24,0.46705616854393917
10.32,0.4574750680972298
10.4,0.44755986239392975
10.48,0.4393258655861651
10.56,0.43392856209349745
10.64,0.43136994719803917
10.72,0.4310628564034896
10.8,0.432625103094451
10.88,0.43604283732323545
10.96,0.44112885711494104
11.040000000000001,0.4470903134328427
11.120000000000001,0.4529269977533251
11.200000000000001,0.4583905606841751
11.28,0.46447745837407656
11.36,0.472723271523099
11.44,0.48360213000676455
11.52,0.4951848587123669
11.6,0.5032229533859138
11.68,0.5029709871416387
11.76,0.49183896104401276
11.84,0.4711926587134302
11.92,0.44596488943054247
12.0,0.4221490958371562
12.08,0.4037803526831377
12.16,0.3914522794851924
12.24,0.3832929070845434
12.32,0.37742859924637945
12.4,0.3738368625603427
12.48,0.3741044935364182
12.56,0.3794778560446772
12.64,0.38909422623886647
12.72,0.4000540941322527
12.8,0.40923112498871034
12.88,0.41510386719796044
12.96,0.4180004114456645
13.040000000000001,0.41881106417556
13.120000000000001,0.417714320247258
13.200000000000001,0.41430422141164464
13.280000000000001,0.40895217267525735
13.36,0.4038822119891605
13.44,0.4026047689474592
13.52,0.40786135102861343
13.6,0.419642059012231
13.68,0.43484920516519765
13.76,0.4488544991899196
13.84,0.4577858177034508
13.92,0.46002001130378156
14.0,0.4561259102005015
14.08,0.44765213416447097
14.16,0.4358754895609765
14.24,0.4214719154574686
14.32,0.40516072664585295
14.4,0.38845730048549565
14.48,0.3736284664428288
14.56,0.36282886947401094
14.64,0.35723288036457795
14.72,0.35686451249645196
14.8,0.36101204746224586
14.88,0.36861124683601304
14.96,0.3782851278268521
15.040000000000001,0.3883053482958951
15.120000000000001,0.3968411475522715
15.200000000000001,0.4024542001656112
15.280000000000001,0.4044596477984802
15.36,0.4028848570108559
15.44,0.39811712259259113
15.52,0.3905346083391769
15.6,0.3803294379178857
15.68,0.36753517786211803
15.76,0.35217793103261674
15.84,0.3345081012715966
15.92,0.31528463370352966
16.0,0.29597273016123327
16.080000000000002,0.27862365106868464
16.16,0.2653549212837505
16.240000000000002,0.2576726698559381
16.32,0.256010236437872
16.4,0.2596211936235414
16.48,0.2666766468227948
16.56,0.2744793615170582
16.64,0.2799888965083574
16.72,0.28079965462562606
16.8,0.2761813204681978
16.88,0.2674049462209286
16.96,0.25697190125097813
17.04,0.24726195416240548
17.12,0.23958645945846202
17.2,0.23420187775561935
17.28,0.23100894529999663
17.36,0.23023607235550847
17.44,0.23261169259460357
17.52,0.2389760765868758
17.6,0.24956639796627447
17.68,0.2633193009263643
17.76,0.27761708080905606
17.84,0.28885033869141774
17.92,0.2937437807109237
18.0,0.2907578983972888
18.080000000000002,0.28066834279721964
18.16,0.2659975886622261
18.240000000000002,0.24983766807159663
18.32,0.23490555649289702
18.400000000000002,0.22319856490698173
18.48,0.2159829242592662
18.56,0.2137116233072726
18.64,0.2158246268995129
18.72,0.22073498634091537
18.8,0.2262690130152285
18.88,0.230468073646605
18.96,0.23231883938593045
19.04,0.23196393462499765
19.12,0.23028971136466125
19.2,0.22822545443294426
19.28,0.22625705310310276
19.36,0.2244139278340619
19.44,0.2225571817777693
19.52,0.22058955255512913
19.6,0.21840964988036998
19.68,0.21578544874694683
19.76,0.2124006408078566
19.84,0.20805878852852627
19.92,0.20279124739496618
20.0,0.19673630810611592
20.080000000000002,0.189978086701677
20.16,0.18261951299577872
20.240000000000002,0.1750799778950657
20.32,0.16827992383652918
20.400000000000002,0.16338299197047224
20.48,0.1611392818846548
20.56,0.1612826400236765
20.64,0.1624989509950285
20.72,0.1630993047005798
20.8,0.16199743246422052
20.88,0.1593506859864706
20.96,0.1564599127439496
21.04,0.15502002142564833
21.12,0.1562039796775816
21.2,0.16011682996326174
21.28,0.16587256737622863
21.36,0.17213719095963673
21.44,0.17774579226285736
21.52,0.18207652662429516
21.6,0.185091218990846
21.68,0.1870981689187985
21.76,0.1883454484527007
21.84,0.18864333137500494
21.92,0.18729563811381472
22.0,0.1834744872965013
22.080000000000002,0.17680943627560036
22.16,0.16775079305990181
22.240000000000002,0.1574828771090359
22.32,0.14756154997369644
22.400000000000002,0.13956177803916647
22.48,0.134786495425818
22.56,0.13391522161144484
22.64,0.13663357551132582
22.72,0.14153747491279167
22.8,0.14654278732126536
22.88,0.14965749506902848
22.96,0.1496945478649622
23.04,0.14658940176233098
23.12,0.14127495925616146
23.2,0.13525863352368925
23.28,0.1300790468185678
23.36,0.1268117855698438
23.44,0.1257800930490118
23.52,0.12654633638105395
23.6,0.12813142528027652
23.68,0.12934090216005395
23.76,0.129107398135413
23.84,0.12680567053595654
23.92,0.12248064572359635
24.0,0.11688696545526142
24.080000000000002,0.11126398793091406
24.16,0.10688674277080194
24.240000000000002,0.10456459140691876
24.32,0.10431445163586264
24.400000000000002,0.10538221086870601
24.48,0.10663745429943222
24.560000000000002,0.10716372875354797
24.64,0.10671464938923483
24.72,0.10575129533318028
24.8,0.10504606641829672
24.88,0.10513882384884626
24.96,0.10600734394502065
25.04,0.10711763045031972
25.12,0.10775040892659993
25.2,0.10737700895477492
25.28,0.10591040354963266
25.36,0.10376012801808034
25.44,0.10167791249073117
25.52,0.10042336247519026
25.6,0.10036821929051039
25.68,0.10125343846336322
25.76,0.10228562476289574
25.84,0.10255480846258533
25.92,0.10151516000526858
26.0,0.09921951599554002
26.080000000000002,0.09619728535871085
26.16,0.09312194687766853
26.240000000000002,0.0905004359985741
26.32,0.08851546212133046
26.400000000000002,0.08702349836404681
26.48,0.08566241401797207
26.560000000000002,0.08401739357362464
26.64,0.08178042666304251
26.72,0.07884520247852383
26.8,0.07533365529087802
26.88,0.07159403459504797
26.96,0.06817466328248806
27.04,0.06570944102882197
27.12,0.06467210070153899
27.2,0.06509053244448738
27.28,0.06642712022304259
27.36,0.06777733947778944
27.44,0.0683220414462549
27.52,0.06775824008445618
27.6,0.06641531294635908
27.68,0.0649744099928735
27.76,0.06398921303295871
27.84,0.06353282011518872
27.92,0.06318147355793001
28.0,0.06230709130764614
28.080000000000002,0.060474092232426835
28.16,0.05771252161217066
28.240000000000002,0.054534673450694064
28.32,0.05169960339851236
28.400000000000002,0.04985057242359161
28.48,0.04921281569503594
28.560000000000002,0.049511429212732674
28.64,0.05015079728492415
28.72,0.05054267014862362
28.8,0.05037900009078813
28.88,0.04969380099664511
28.96,0.04871653308889004
29.04,0.04765935555531877
29.12,0.046593296012045274
29.2,0.04546853269978912
29.28,0.04422390329547428
29.36,0.042887636424842876
29.44,0.04159898370102107
29.52,0.040543223816267265
29.6,0.039850711515363624
29.68,0.03953034659907206
29.76,0.03947572978599063
29.84,0.03952428151439379
29.92,0.03951754141658764
30.0,0.03933339749885724
30.080000000000002,0.038908093905783835
30.16,0.038276717662474154
30.240000000000002,0.037616792956862
30.32,0.03723512822279626
30.400000000000002,0.0374579470191984
30.48,0.03845955643105889
30.560000000000002,0.040122403003995846
30.64,0.04201483674010156
30.72,0.043522248696515775
30.8,0.04410399907604356
30.88,0.04357647171167608
30.96,0.04226450445744319
31.04,0.04089126352206465
31.12,0.04022633209595398
31.2,0.04068998826338911
31.28,0.042159680292108495
31.36,0.04408777615252313
31.44,0.045828577635616916
31.52,0.04695158078657182
31.6,0.047363105725112306
31.68,0.04721664853130012
31.76,0.04673562063971122
31.84,0.04609385245624242
31.92,0.045400872084855846
32.0,0.044731222198244776
32.08,0.0441255791218096
32.160000000000004,0.04356227498394535
32.24,0.04294866242416456
32.32,0.04215894035418718
32.4,0.04109785135678411
32.480000000000004,0.039758830579297195
32.56,0.03825837265914083
32.64,0.036825903585496055
32.72,0.035725806091672994
32.8,0.035129166131013995
32.88,0.03501655093690022
32.96,0.03519755863010861
33.04,0.03544656630785368
33.12,0.03565387304656841
33.2,0.03587664717624925
33.28,0.036255260898039814
33.36,0.0368620741007666
33.44,0.03759556898021915
33.52,0.03819929672716335
33.6,0.03839652910854487
33.68,0.038045604325034905
33.76,0.037203974000496104
33.84,0.03606077684767549
33.92,0.03480112518132221
34.0,0.03351440550643428
34.08,0.032217486773546744
34.160000000000004,0.030967998546189212
34.24,0.029965615689712836
34.32,0.02953972766836019
34.4,0.03000416970687477
34.480000000000004,0.0314625194433138
34.56,0.03368911738951272
34.64,0.03616204044407239
34.72,0.03823211025606109
34.800000000000004,0.0393473633804162
34.88,0.039241116687821154
34.96,0.03801212202630904
35.04,0.03606014164621428
35.12,0.03389673983344535
35.2,0.03191978869127285
35.28,0.03027202452044412
35.36,0.02885800170161356
35.44,0.02749293729163564
35.52,0.02607465829706259
35.6,0.02466585647315872
35.68,0.023446859882881407
35.76,0.02259058828168966
35.84,0.022153100774142658
35.92,0.02204368050905287
36.0,0.02207611894345704
36.08,0.022060889064478555
36.160000000000004,0.02189309456892786
36.24,0.02160389987929688
36.32,0.021355302469622008
36.4,0.021372536607430197
36.480000000000004,0.021833189521875435
36.56,0.02276035387752849
36.64,0.023978756419016672
36.72,0.025170453803403214
36.800000000000004,0.026011827306189478
36.88,0.026317080778624057
36.96,0.02610317063062951
37.04,0.025546035533557707
37.12,0.024873936762192704
37.2,0.024271943434307986
37.28,0.023837038595010476
37.36,0.023576832981705414
37.44,0.02343225316233348
37.52,0.023315893230550132
37.6,0.02315954797337174
37.68,0.02295196110274773
37.76,0.022743806494416752
37.84,0.022615140320435736
37.92,0.022627772752312675
38.0,0.022794968710589336
38.08,0.023081175675198216
38.160000000000004,0.02341412347656609
38.24,0.023687404205888014
38.32,0.02376306951767829
38.4,0.02350918673163277
38.480000000000004,0.022880300332145373
38.56,0.021987983099479236
38.64,0.02108751471250204
38.72,0.020462516285382374
38.800000000000004,0.020272856263779917
38.88,0.020463767071799425
38.96,0.020792586442881837
39.04,0.020955940534302355
39.12,0.02074760959920405
39.2,0.020169001207114654
39.28,0.019446606131909485
39.36,0.01896655314453114
39.44,0.019181058934310748
39.52,0.020532208663091574
39.6,0.02337058890267162
39.68,0.02779522220503216
39.76,0.033409686744090665
39.84,0.039164249179265365
39.92,0.04354254846344569
40.0,0.045160456904500886
40.08,0.043467129891316965
40.160000000000004,0.03905184184449313
40.24,0.03331743987516394
40.32,0.027766351858918806
40.4,0.023391974333446156
40.480000000000004,0.020488642065888414
40.56,0.018835295182023815
40.64,0.01800760776530086
40.72,0.01761459564375764
40.800000000000004,0.017398345147398072
40.88,0.017234631290233646
40.96,0.017092267029184392
41.04,0.01698829673808172
41.12,0.016954345896747214
41.2,0.01701644614804782
41.28,0.017181824993441758
41.36,0.017425136072003432
41.44,0.017678594589855007
41.52,0.01784252549540755
41.6,0.01782423961016944
41.68,0.017587090162921565
41.76,0.01717663104501806
41.84,0.016704978696226048
41.92,0.016302723791828
42.0,0.016063930718936744
42.08,0.016008043353000177
42.160000000000004,0.01607412995066882
42.24,0.01615213333315795
42.32,0.016138066785452092
42.4,0.015982053976522376
42.480000000000004,0.015699617529498795
42.56,0.015344482663006646
42.64,0.01497234145286951
42.72,0.014627464832431339
42.800000000000004,0.014353600626211306
42.88,0.014200077124479705
42.96,0.014199408309021671
43.04,0.014330715965823436
43.12,0.014511125127490525
43.2,0.014639819179178108
43.28,0.014670368924405673
43.36,0.014654759990078703
43.44,0.01471888179577139
43.52,0.014979594315889704
43.6,0.01545671463535461
43.68,0.01603924158102832
43.76,0.016531899086346676
43.84,0.016756246151632907
43.92,0.016642300597001797
44.0,0.016250915989843677
44.08,0.015717215563388343
44.160000000000004,0.015165095957966413
44.24,0.0146602454087415
44.32,0.014227005973026109
44.4,0.01389322897414556
44.480000000000004,0.013706535430054395
44.56,0.013701994804327542
44.64,0.01385462565594419
44.72,0.014067526427059308
44.800000000000004,0.014214295665337861
44.88,0.014205701818527311
44.96,0.01402999142660664
45.04,0.013739777813066663
45.12,0.013402012160893591
45.2,0.013052203956361464
45.28,0.01268302615236961
45.36,0.012267563232783198
45.44,0.011796332097209396
45.52,0.011305282297807782
45.6,0.010880471281311636
45.68,0.010634339735415381
45.76,0.010658553270782838
45.84,0.01097135579083289
45.92,0.01148765499015483
46.0,0.0120368498425104
46.08,0.012431309841815837
46.160000000000004,0.01255550238268609
46.24,0.01242402960467447
46.32,0.01216904029382659
46.4,0.011962708194365942
46.480000000000004,0.011924832798281826
46.56,0.012071134573478602
46.64,0.012322885464836793
46.72,0.012558202612257489
46.800000000000004,0.01267022517228834
46.88,0.012606090420139854
46.96,0.012375750371550961
47.04,0.012033258822729768
47.12,0.01164505972527435
47.2,0.011264491832653455
47.28,0.010923056406589617
47.36,0.010633764287887697
47.44,0.010395161890159356
47.52,0.010191326499440299
47.6,0.009993075810006396
47.68,0.00976771624858654
47.76,0.00949787113306724
47.84,0.009200217922700413
47.92,0.008929203637463023
48.0,0.00875550207441747
48.08,0.008725766750420083
48.160000000000004,0.00882852009417779
48.24,0.008992606411210337
48.32,0.009122743316800049
48.4,0.009147849780134663
48.480000000000004,0.009048620085997114
48.56,0.008850777315407973
48.64,0.008600348796224452
48.72,0.00834780497562736
48.800000000000004,0.008149967948004096
48.88,0.008072926326833253
48.96,0.008174412557911317
49.04,0.008467084498805597
49.120000000000005,0.008892450701638134
49.2,0.009338568458831268
49.28,0.009705500653675817
49.36,0.009984864625909983
49.44,0.010305220964889408
49.52,0.010910121090556626
49.6,0.01206134907924144
49.68,0.013885319351255579
49.76,0.016218188743709026
49.84,0.01855098792090438
49.92,0.020171440856805965
50.0,0.020486644622648813
50.08,0.019346359968133234
50.160000000000004,0.01713523859995937
50.24,0.01455664726170868
50.32,0.012267254412428466
50.4,0.010615287514850703
50.480000000000004,0.009612716005632767
50.56,0.009077702446479334
50.64,0.008797519263227067
50.72,0.008615488267648
50.800000000000004,0.008441432869024162
50.88,0.008232456948493953
50.96,0.007978587710052703
51.04,0.0076969847159866905
51.120000000000005,0.007424334845786973
51.2,0.007203567140366242
51.28,0.007071157967658793
51.36,0.0070510164043138465
51.44,0.007152815542013462
51.52,0.007368998180603652
51.6,0.0076706943337548
51.68,0.00801035161446707
51.76,0.008337280260357228
51.84,0.008620946002623293
51.92,0.00886619226301043
52.0,0.009106245186725637
52.08,0.009374562109238493
52.160000000000004,0.009673269722360748
52.24,0.009959387264657426
52.32,0.010157670031234528
52.4,0.010192048017597039
52.480000000000004,0.01001845890761562
52.56,0.009643401653598666
52.64,0.00912136214832306
52.72,0.008535564082377264
52.800000000000004,0.007973804205192855
52.88,0.0075091406849144785
52.96,0.007187278416360917
53.04,0.007018618854550593
53.120000000000005,0.006976284157644112
53.2,0.00700400173909866
53.28,0.007033424221091782
53.36,0.007004540626629528
53.44,0.00688291090956596
53.52,0.006671529223094632
53.6,0.006415742041885331
53.68,0.006196135055664756
53.76,0.006104115938028519
53.84,0.006203355081488564
53.92,0.006492739170631831
54.0,0.0068921184172897835
54.08,0.007264036295994709
54.160000000000004,0.007466686391347989
54.24,0.007416184576796485
54.32,0.007128485853582521
54.4,0.0067168962590544775
54.480000000000004,0.006341206810761427
54.56,0.006132734768484834
54.64,0.006137644257706699
54.72,0.006310597208593959
54.800000000000004,0.006556141120354287
54.88,0.006784250301023215
54.96,0.006943923714699939
55.04,0.007022203627021911
