Frequency,PSD
6.0,0.5458920913305798
6.08,0.5463136337115699
6.16,0.5471550160920845
6.24,0.5484128459880818
6.32,0.5500820651980705
6.4,0.5521559859515615
6.48,0.5546263383125095
6.5600000000000005,0.5574833281712194
6.640000000000001,0.5607157050096956
6.72,0.5643108384890451
6.8,0.5682548027857264
6.88,0.5725324674985747
6.96,0.5771275938628663
7.04,0.5820229349434273
7.12,0.5872003384378013
7.2,0.5926408507044744
7.28,0.5983248206413623
7.36,0.6042320020770552
7.44,0.6103416534019735
7.5200000000000005,0.6166326332583763
7.6000000000000005,0.623083491226102
7.68,0.6296725525834073
7.76,0.6363779963869116
7.84,0.6431779262984137
7.92,0.6500504337853978
8.0,0.6569736535320103
8.08,0.6639258111131724
8.16,0.6708852632008742
8.24,0.67783053078287
8.32,0.684740326074062
8.4,0.6915935739839831
8.48,0.6983694291643505
8.56,0.7050472897934121
8.64,0.7116068093541433
8.72,0.7180279077274008
8.8,0.7242907829459928
8.88,0.7303759249394225
8.96,0.7362641325411217
9.040000000000001,0.741936534930857
9.120000000000001,0.7473746185464885
9.200000000000001,0.7525602603244065
9.28,0.7574757679210198
9.36,0.7621039273338859
9.44,0.7664280580866922
9.52,0.7704320758742794
9.6,0.7741005622897232
9.68,0.7774188409830216
9.76,0.780373059337983
9.84,0.7829502745082331
9.92,0.785138542432122
10.0,0.7869270082563493
10.08,0.7883059964451579
10.16,0.7892670987407103
10.24,0.7898032580744103
10.32,0.7899088465107633
10.4,0.7895797353359241
10.48,0.7888133554820129
10.56,0.787608746603936
10.64,0.7859665932949235
10.72,0.7838892471361859
10.8,0.7813807335199362
10.88,0.7784467424575165
10.96,0.7750946028788634
11.040000000000001,0.77133324023888
11.120000000000001,0.7671731175630182
11.200000000000001,0.7626261603809132
11.28,0.7577056663058606
11.36,0.7524262003120767
11.44,0.7468034770343606
11.52,0.7408542316598765
11.6,0.73459608119398
11.68,0.7280473780568414
11.76,0.7212270581015384
11.84,0.7141544852348027
11.92,0.7068492948672234
12.0,0.69933123842003
12.08,0.6916200310712346
12.16,0.6837352048365362
12.24,0.6756959689525971
12.32,0.6675210793655495
12.4,0.6592287189301199
12.48,0.6508363896995482
12.56,0.6423608184389249
12.64,0.6338178762306351
12.72,0.6252225127663613
12.8,0.6165887056419029
12.88,0.6079294246950763
12.96,0.5992566111592946
13.040000000000001,0.5905811711517314
13.120000000000001,0.5819129827805706
13.200000000000001,0.5732609159453294
13.280000000000001,0.5646328637216123
13.36,0.5560357840700146
13.44,0.5474757504905919
13.52,0.5389580101606708
13.6,0.5304870480453018
13.68,0.5220666554558357
13.76,0.5137000015516556
13.84,0.5053897063307851
13.92,0.49713791373409694
14.0,0.48894636359158355
14.08,0.48081646126364264
14.16,0.4727493439711785
14.24,0.4647459429609262
14.32,0.4568070408121123
14.4,0.4489333233527939
14.48,0.44112542581456365
14.56,0.4333839730088259
14.64,0.4257096134528566
14.72,0.41810304750642874
14.8,0.4105650496973959
14.88,0.4030964855155364
14.96,0.3956983230370037
15.040000000000001,0.3883716398064147
15.120000000000001,0.38111762545003613
15.200000000000001,0.3739375805223905
15.280000000000001,0.3668329121010117
15.36,0.35980512664161546
15.44,0.3528558205904541
15.52,0.34598666922419447
15.6,0.33919941415243987
15.68,0.33249584987630065
15.76,0.3258778097503073
15.84,0.3193471516465396
15.92,0.3129057435709576
16.0,0.3065554494342114
16.080000000000002,0.30029811513403826
16.16,0.2941355550648479
16.240000000000002,0.2880695391330957
16.32,0.2821017803250731
16.4,0.27623392284721543
16.48,0.2704675308379566
16.56,0.26480407763457664
16.64,0.25924493556807154
16.72,0.2537913662535698
16.8,0.24844451134272894
16.88,0.24320538370742195
16.96,0.23807485903031275
17.04,0.233053667787092
17.12,0.22814238761662167
17.2,0.2233414360884831
17.28,0.21865106389187045
17.36,0.2140713484848713
17.44,0.2096021882583945
17.52,0.205243297283774
17.6,0.2009942007268982
17.68,0.19685423102399707
17.76,0.19282252492449634
17.84,0.18889802151406554
17.92,0.18507946133569886
18.0,0.18136538672792082
18.080000000000002,0.17775414349665533
18.16,0.17424388403060698
18.240000000000002,0.17083257195904605
18.32,0.16751798843551896
18.400000000000002,0.16429774011135792
18.48,0.16116926883907953
18.56,0.15812986311826488
18.64,0.1551766712657541
18.72,0.15230671625871145
18.8,0.14951691216402527
18.88,0.14680408203163747
18.96,0.1441649770936379
19.04,0.14159629707648722
19.12,0.13909471140155244
19.2,0.13665688102038956
19.28,0.13427948060685035
19.36,0.1319592208090926
19.44,0.1296928702516453
19.52,0.12747727697152542
19.6,0.12530938897331245
19.68,0.12318627359638014
19.76,0.12110513540300355
19.84,0.1190633323186378
19.92,0.11705838978471654
20.0,0.11508801271921293
20.080000000000002,0.11315009511998583
20.16,0.11124272718960884
20.240000000000002,0.10936419990672686
20.32,0.10751300701682634
20.400000000000002,0.10568784446330443
20.48,0.10388760732667834
20.56,0.10211138438444274
20.64,0.10035845044538243
20.72,0.09862825664907995
20.8,0.09692041895313196
20.88,0.09523470505654894
20.96,0.09357102002753498
21.04,0.09192939091706771
21.12,0.09030995064642433
21.2,0.08871292145712184
21.28,0.08713859820602665
21.36,0.08558733177708536
21.44,0.08405951286484664
21.52,0.08255555636436873
21.6,0.08107588657800271
21.68,0.07962092342271486
21.76,0.07819106979284704
21.84,0.07678670020332287
21.92,0.0754081508080276
22.0,0.07405571085809236
22.080000000000002,0.07272961563575456
22.16,0.07143004087182211
22.240000000000002,0.07015709862902392
22.32,0.06891083461001574
22.400000000000002,0.06769122682778056
22.48,0.0664981855578213
22.56,0.06533155447596452
22.64,0.06419111287282678
22.72,0.0630765788260293
22.8,0.061987613203977346
22.88,0.06092382437037931
22.96,0.05988477345649911
23.04,0.05886998006826505
23.12,0.05787892829761994
23.2,0.05691107291169479
23.28,0.05596584559932568
23.36,0.05504266116190777
23.44,0.05414092354436447
23.52,0.05326003161192071
23.6,0.052399384589145254
23.68,0.05155838708919419
23.76,0.05073645367309172
23.84,0.049933012891029235
23.92,0.049147510769821004
24.0,0.04837941372264108
24.080000000000002,0.04762821086874097
24.16,0.04689341576190434
24.240000000000002,0.046174567536678965
24.32,0.04547123149089263
24.400000000000002,0.0447829991314115
24.48,0.04410948771751744
24.560000000000002,0.04345033934256257
24.64,0.04280521959971598
24.72,0.04217381588161522
24.8,0.04155583536666313
24.88,0.040951002746559446
24.96,0.0403590577505762
25.04,0.03977975252209876
25.12,0.03921284890224459
25.2,0.038658115673970726
25.28,0.038115325818157145
25.36,0.03758425383076003
25.44,0.03706467314740035
25.52,0.03655635371870465
25.6,0.0360590597764555
25.68,0.035572547827136265
25.76,0.035096564905791106
25.84,0.034630847119282715
25.92,0.034175118503975546
26.0,0.0337290902186001
26.080000000000002,0.033292460088526696
26.16,0.03286491251286834
26.240000000000002,0.03244611874073693
26.32,0.032035737517567706
26.400000000000002,0.03163341609676086
26.48,0.031238791605941087
26.560000000000002,0.03085149275104518
26.64,0.030471141835229053
26.72,0.030097357063406445
26.8,0.029729755097202253
26.88,0.029367953819384736
26.96,0.029011575261599337
27.04,0.028660248644650672
27.12,0.028313613476811703
27.2,0.027971322652879434
27.28,0.027633045495059263
27.36,0.02729847067638465
27.44,0.026967308968327827
27.52,0.02663929575661299
27.6,0.02631419327295692
27.68,0.02599179249553424
27.76,0.025671914677281808
27.84,0.025354412468573506
27.92,0.025039170609159188
28.0,0.02472610617332787
28.080000000000002,0.02441516836179516
28.16,0.024106337843560793
28.240000000000002,0.02379962566065605
28.32,0.02349507171802897
28.400000000000002,0.023192742889525105
28.48,0.02289273077878986
28.560000000000002,0.022595149180687855
28.64,0.02230013129437566
28.72,0.022007826743302462
28.8,0.021718398460078593
28.88,0.02143201949530873
28.96,0.021148869809137424
29.04,0.020869133102479724
29.12,0.020592993741791195
29.2,0.02032063382693886
29.28,0.02005223044643435
29.36,0.019787953158190815
29.44,0.01952796172726044
29.52,0.019272404144974303
29.6,0.01902141494669595
29.68,0.018775113838273225
29.76,0.018533604634406606
29.84,0.01829697450568919
29.92,0.018065293525202142
30.0,0.017838614500311434
30.080000000000002,0.017616973070845338
30.16,0.01740038805111814
30.240000000000002,0.017188861990365713
30.32,0.01698238192400954
30.400000000000002,0.016780920286770185
30.48,0.016584435957910197
30.560000000000002,0.01639287540876569
30.64,0.016206173923117326
30.72,0.01602425686180773
30.8,0.015847040944219556
30.88,0.015674435520759866
30.96,0.015506343812261092
31.04,0.01534266409417267
31.12,0.01518329080554972
31.2,0.015028115565116004
31.28,0.01487702807907438
31.36,0.014729916927865398
31.44,0.014586670221717765
31.52,0.014447176117611704
31.6,0.014311323193165377
31.68,0.014179000675977093
31.76,0.014050098530062144
31.84,0.013924507404222948
31.92,0.013802118450406537
32.0,0.013682823023311447
32.08,0.013566512275634528
32.160000000000004,0.013453076666296167
32.24,0.01334240540169694
32.32,0.013234385832430298
32.4,0.013128902829811358
32.480000000000004,0.013025838167985424
32.56,0.012925069938200199
32.64,0.01282647202194799
32.72,0.012729913649094409
32.8,0.01263525906576661
32.88,0.012542367334654053
32.96,0.012451092287539763
33.04,0.012361282646324308
33.12,0.01227278232465449
33.2,0.012185430917591975
33.28,0.01209906438168498
33.36,0.012013515902490033
33.44,0.011928616941173222
33.52,0.011844198446476908
33.6,0.011760092213221432
33.68,0.011676132363805434
33.76,0.011592156924999323
33.84,0.011508009468853154
33.92,0.011423540783866011
34.0,0.011338610540780222
34.08,0.01125308891653225
34.160000000000004,0.011166858140046913
34.24,0.011079813924685773
34.32,0.010991866754244316
34.4,0.010902942992345614
34.480000000000004,0.010812985788827972
34.56,0.010721955761152247
34.64,0.01062983143381551
34.72,0.010536609424126857
34.800000000000004,0.010442304368297014
34.88,0.01034694858747986
34.96,0.010250591499005101
35.04,0.010153298783433434
35.12,0.010055151323083777
35.2,0.009956243932236247
35.28,0.009856683903184307
35.36,0.009756589395625428
35.44,0.009656087699491084
35.52,0.009555313403174507
35.6,0.00945440650023072
35.68,0.009353510467984895
35.76,0.009252770351145582
35.84,0.009152330882498089
35.92,0.009052334671129151
36.0,0.008952920486475951
36.08,0.008854221663846132
36.160000000000004,0.008756364654054914
36.24,0.008659467736494774
36.32,0.008563639911409977
36.4,0.008468979983461406
36.480000000000004,0.008375575844903928
36.56,0.008283503962924908
36.64,0.008192829071988296
36.72,0.00810360406842426
36.800000000000004,0.008015870101067498
36.88,0.007929656848521548
36.96,0.00784498297063467
37.04,0.007761856719072233
37.12,0.007680276689479596
37.2,0.007600232695667643
37.28,0.007521706744577238
37.36,0.00744467408946157
37.44,0.007369104337838785
37.52,0.007294962590281887
37.6,0.007222210586069431
37.68,0.007150807832108211
37.76,0.007080712692371122
37.84,0.007011883416344126
37.92,0.006944279086664857
38.0,0.006877860468188061
38.08,0.006812590743166659
38.160000000000004,0.00674843611997218
38.24,0.006685366305817556
38.32,0.006623354837183922
38.4,0.006562379265027153
38.480000000000004,0.006502421195313376
38.56,0.006443466188868737
38.64,0.006385503527899447
38.72,0.006328525859723426
38.800000000000004,0.006272528731191749
38.88,0.006217510029883123
38.96,0.006163469350362074
39.04,0.006110407305521628
39.12,0.00605832480426258
39.2,0.006007222317428831
39.28,0.0059570991540132765
39.36,0.005907952769158797
39.44,0.005859778124416286
39.52,0.005812567119109846
39.6,0.00576630810953562
39.68,0.005720985530154141
39.76,0.005676579627978396
39.84,0.005633066318111396
39.92,0.005590417164920111
40.0,0.005548599489760275
40.08,0.00550757660257634
40.160000000000004,0.005467308151199993
40.24,0.005427750578857909
40.32,0.005388857677363461
40.4,0.00535058122079447
40.480000000000004,0.005312871662231187
40.56,0.005275678874387523
40.64,0.00523895291378783
40.72,0.005202644787525379
40.800000000000004,0.005166707201625588
40.88,0.00513109527060292
40.96,0.005095767168943879
41.04,0.005060684706922796
41.12,0.005025813815321763
41.2,0.004991124926206308
41.28,0.004956593239842746
41.36,0.004922198871036075
41.44,0.004887926871541635
41.52,0.004853767128642356
41.6,0.004819714143426009
41.68,0.004785766695600689
41.76,0.004751927404813075
41.84,0.004718202201242742
41.92,0.00468459972072008
42.0,0.004651130641620113
42.08,0.004617806982337852
42.160000000000004,0.004584641379151832
42.24,0.004551646364736807
42.32,0.004518833667490319
42.4,0.004486213551161966
42.480000000000004,0.004453794213078975
42.56,0.004421581257555611
42.64,0.004389577258916656
42.72,0.004357781426024103
42.800000000000004,0.00432618937732155
42.88,0.004294793032322709
42.96,0.004263580622206869
43.04,0.004232536818890411
43.12,0.004201642978662245
43.2,0.004170877493338606
43.28,0.00414021623895899
43.36,0.004109633109426504
43.44,0.004079100620234775
43.52,0.004048590565604287
43.6,0.004018074711013512
43.68,0.003987525502286149
43.76,0.003956916772114745
43.84,0.003926224425155715
43.92,0.0038954270836191393
44.0,0.003864506676561257
44.08,0.003833448957832634
44.160000000000004,0.0038022439397793727
44.24,0.0037708862322778126
44.32,0.003739375279410897
44.4,0.003707715489008282
44.480000000000004,0.0036759162532555654
44.56,0.003643991861558898
44.64,0.003611961309739238
44.72,0.003579848012325408
44.800000000000004,0.0035476794271609158
44.88,0.0035154866036544302
44.96,0.0034833036677258886
45.04,0.0034511672578109095
45.12,0.0034191159271175237
45.2,0.00338718952770929
45.28,0.0033554285918854874
45.36,0.0033238737257782532
45.44,0.003292565029114833
45.52,0.0032615415537426418
45.6,0.003230840811838092
45.68,0.0032004983427956664
45.76,0.003170547345673364
45.84,0.0031410183818421193
45.92,0.003111939150224983
46.0,0.0030833343352904517
46.08,0.003055225525849352
46.160000000000004,0.0030276312007718534
46.24,0.0030005667760420185
46.32,0.0029740447061308434
46.4,0.002948074631575065
46.480000000000004,0.002922663563855385
46.56,0.0028978160982473
46.64,0.002873534645219441
46.72,0.0028498196711923204
46.800000000000004,0.0028266699400008796
46.88,0.0028040827471984865
46.96,0.0027820541403577974
47.04,0.002760579119701137
47.12,0.002739651814695279
47.2,0.002719265633596736
47.28,0.0026994133843008875
47.36,0.002680087366157633
47.44,0.002661279433640775
47.52,0.0026429810338409257
47.6,0.002625183220671297
47.68,0.0026078766493989325
47.76,0.0025910515556298863
47.84,0.0025746977231791077
47.92,0.0025588044453503725
48.0,0.002543360484035719
48.08,0.0025283540307636555
48.160000000000004,0.002513772673376595
48.24,0.0024996033714560703
48.32,0.002485832442948588
48.4,0.002472445563750786
48.480000000000004,0.0024594277812655524
48.56,0.0024467635422411455
48.64,0.0024344367345325614
48.72,0.0024224307418384793
48.800000000000004,0.0024107285099683566
48.88,0.002399312622812528
48.96,0.002388165385928294
49.04,0.0023772689155158663
49.120000000000005,0.0023666052305476235
49.2,0.0023561563459060034
49.28,0.0023459043645867456
49.36,0.0023358315672993707
49.44,0.0023259204981368638
49.52,0.0023161540453562994
49.6,0.002306515516705219
49.68,0.002296988709106409
49.76,0.002287557972859861
49.84,0.0022782082708300115
49.92,0.002268925233310324
50.0,0.002259695209433695
50.08,0.002250505316071308
50.160000000000004,0.0022413434851640407
50.24,0.0022321985103502737
50.32,0.0022230600935991066
50.4,0.002213918892343368
50.480000000000004,0.0022047665673346
50.56,0.002195595831151753
50.64,0.0021864004969690543
50.72,0.0021771755268786518
50.800000000000004,0.0021679170787657943
50.88,0.002158622550469478
50.96,0.0021492906197525218
51.04,0.0021399212784429904
51.120000000000005,0.002130515859036248
51.2,0.002121077052023128
51.28,0.002111608912290265
51.36,0.0021021168530670903
51.44,0.002092607626114698
51.52,0.0020830892871192587
51.6,0.0020735711455842874
51.68,0.0020640636988787306
51.76,0.0020545785504936034
51.84,0.0020451283129647307
51.92,0.002035726496328258
52.0,0.0020263873833592603
52.08,0.0020171258932097282
52.160000000000004,0.002007957435380273
52.24,0.001998897756236564
52.32,0.001989962780493673
52.4,0.001981168450242163
52.480000000000004,0.0019725305641840087
52.56,0.001964064619764446
52.64,0.001955785660837277
52.72,0.0019477081334080392
52.800000000000004,0.001939845751824966
52.88,0.0019322113775829472
52.96,0.0019248169126480884
53.04,0.001917673208914842
53.120000000000005,0.0019107899950933979
53.2,0.0019041758219826791
53.28,0.0018978380267414222
53.36,0.0018917827164061703
53.44,0.0018860147705736328
53.52,0.0018805378628085258
53.6,0.0018753545000360378
53.68,0.0018704660788616389
53.76,0.0018658729575044691
53.84,0.0018615745417685514
53.92,0.0018575693832802338
54.0,0.001853855288032804
54.08,0.0018504294331369415
54.160000000000004,0.0018472884895747604
54.24,0.0018444287486843913
54.32,0.001841846250065528
54.4,0.0018395369086131883
54.480000000000004,0.0018374966384157717
54.56,0.001835721471339436
54.64,0.0018342076682258146
54.72,0.0018329518207750996
54.800000000000004,0.001831950942354527
54.88,0.0018312025461731719
54.96,0.0018307047094852174
55.04,0.0018304561227222918
