Frequency,PSD
6.057142857142857,0.4188282984354258
6.171428571428571,0.41293349579365757
6.285714285714286,0.409809393290121
6.3999999999999995,0.4184676891067357
6.514285714285714,0.4397005135285634
6.628571428571428,0.4651866691139073
6.742857142857143,0.48441676093072267
6.857142857142857,0.4923655145214165
6.9714285714285715,0.4912071941688622
7.085714285714285,0.486308373399548
7.2,0.48222659399196227
7.314285714285714,0.48255691568233183
7.428571428571428,0.4917605711735461
7.542857142857143,0.5154270402201967
7.657142857142857,0.5588545820597928
7.771428571428571,0.6265877718786538
7.885714285714285,0.7241827979827549
8.0,0.859835875262623
8.114285714285714,1.0409229287539803
8.228571428571428,1.2632307298818166
8.342857142857143,1.5005548331369536
8.457142857142857,1.7088552633671386
8.571428571428571,1.8475009197186718
8.685714285714285,1.8993352970169415
8.799999999999999,1.8705850842569753
8.914285714285715,1.7753219278841499
9.028571428571428,1.6253042215272844
9.142857142857142,1.434377176705759
9.257142857142856,1.2264139576254462
9.371428571428572,1.033037207297529
9.485714285714286,0.8813600215537244
9.6,0.7835799204045637
9.714285714285714,0.73769708653181
9.828571428571427,0.7375351377512072
9.942857142857143,0.7824244762527597
10.057142857142857,0.8773596487211863
10.17142857142857,1.0216061261842313
10.285714285714285,1.1937768421031663
10.4,1.34763902340874
10.514285714285714,1.4277374794474917
10.628571428571428,1.3975853181731512
10.742857142857142,1.2596333696133017
10.857142857142858,1.0515474648305965
10.971428571428572,0.8238005992901448
11.085714285714285,0.6170852509079997
11.2,0.45258603722589247
11.314285714285713,0.3345289342777108
11.428571428571429,0.2572524782969008
11.542857142857143,0.2107689305348599
11.657142857142857,0.18381012231587004
11.77142857142857,0.16623083132602054
11.885714285714286,0.15157562818619758
12.0,0.13825461086361535
12.114285714285714,0.12791383390494485
12.228571428571428,0.122196572368089
12.342857142857142,0.12062555954839396
12.457142857142857,0.12089643036142518
12.571428571428571,0.12052823630607443
12.685714285714285,0.11820802099121792
12.799999999999999,0.1141470984268006
12.914285714285715,0.1096662050096836
13.028571428571428,0.10645356927594526
13.142857142857142,0.10586033348775885
13.257142857142856,0.1084092992105879
13.371428571428572,0.11355876478843432
13.485714285714286,0.11986693823408273
13.6,0.12571419962025007
13.714285714285714,0.1302616605022438
13.828571428571427,0.133841147356755
13.942857142857143,0.13733408019986149
14.057142857142857,0.141097995560023
14.17142857142857,0.14445909717185773
14.285714285714285,0.14617933756957158
14.4,0.1454326655094471
14.514285714285714,0.1425914921825438
14.628571428571428,0.13939315716411527
14.742857142857142,0.13829007481392477
14.857142857142856,0.14111528012442626
14.971428571428572,0.14783812882564976
15.085714285714285,0.15642944287418487
15.2,0.1640188404473841
15.314285714285713,0.16844139045397777
15.428571428571429,0.16921726282491417
15.542857142857143,0.16771426994168007
15.657142857142857,0.16656974854523773
15.77142857142857,0.16843716309261794
15.885714285714284,0.17455604035319758
16.0,0.18407564116514763
16.114285714285714,0.19446183726655358
16.228571428571428,0.20239617409451688
16.34285714285714,0.20479404810944102
16.457142857142856,0.20014975542540514
16.57142857142857,0.18974608961019632
16.685714285714287,0.17743542442019494
16.8,0.16769781841403456
16.914285714285715,0.1634224516058064
17.02857142857143,0.16491950737633462
17.142857142857142,0.17030322695015973
17.257142857142856,0.1765618988025183
17.37142857142857,0.18079779105133195
17.485714285714284,0.18131817094132643
17.599999999999998,0.17813449235678708
17.714285714285715,0.1724964073813129
17.82857142857143,0.16564217894747965
17.942857142857143,0.1576424388651945
18.057142857142857,0.1473866971503447
18.17142857142857,0.1339136217965528
18.285714285714285,0.11790674498037523
18.4,0.10183171725967366
18.514285714285712,0.08858880485152319
18.628571428571426,0.08006099578178805
18.742857142857144,0.07665026521741052
18.857142857142858,0.07750883192838787
18.97142857142857,0.08080078822825841
19.085714285714285,0.08412628222977699
19.2,0.08547380131324941
19.314285714285713,0.08421417174211482
19.428571428571427,0.08116894930579709
19.54285714285714,0.07761615148959371
19.657142857142855,0.07421765860614811
19.771428571428572,0.07085409375397421
19.885714285714286,0.0673059353635311
20.0,0.06390076806182057
20.114285714285714,0.0614812051088369
20.228571428571428,0.060853777000360175
20.34285714285714,0.06229005573533692
20.457142857142856,0.06542712414721055
20.57142857142857,0.06952373287213029
20.685714285714287,0.07381667040411251
20.8,0.07770525311239582
20.914285714285715,0.08068466680667583
21.02857142857143,0.08225434347139757
21.142857142857142,0.08206182914967255
21.257142857142856,0.0801704722245661
21.37142857142857,0.07708016689016864
21.485714285714284,0.07341456228666444
21.599999999999998,0.06959839457277477
21.714285714285715,0.06579560839633422
21.82857142857143,0.06203719912877561
21.942857142857143,0.05833432998796027
22.057142857142857,0.05469203647707162
22.17142857142857,0.05109499529548014
22.285714285714285,0.04758831448058634
22.4,0.04442259263560035
22.514285714285712,0.04200230574004625
22.628571428571426,0.04049006078679523
22.742857142857144,0.03942533405211405
22.857142857142858,0.03791796663186052
22.97142857142857,0.035388120696153165
23.085714285714285,0.03212646817523986
23.2,0.029110086404371512
23.314285714285713,0.027305158667174804
23.428571428571427,0.027091682143111966
23.54285714285714,0.02815341554339073
23.657142857142855,0.029747038611110232
23.771428571428572,0.03109988118277173
23.885714285714286,0.0317184195665196
24.0,0.03149893678525544
24.114285714285714,0.030658006103090968
24.228571428571428,0.02955906496624675
24.34285714285714,0.028507684131897464
24.457142857142856,0.02761160594697429
24.57142857142857,0.026808498906290345
24.685714285714283,0.026033648731989496
24.8,0.025334909621030733
24.914285714285715,0.02480439030784945
25.02857142857143,0.024450776728204934
25.142857142857142,0.02420647742151442
25.257142857142856,0.024028994266531368
25.37142857142857,0.02390481956323113
25.485714285714284,0.023753261238297633
25.599999999999998,0.023424978509774846
25.71428571428571,0.022852781781158103
25.82857142857143,0.022168734457336498
25.942857142857143,0.021629046177944113
26.057142857142857,0.021415561104383203
26.17142857142857,0.02149528649395449
26.285714285714285,0.02163971813601552
26.4,0.02157801219378981
26.514285714285712,0.021176558990966654
26.628571428571426,0.020516874288634246
26.742857142857144,0.019815423554731565
26.857142857142858,0.019263727570200714
26.97142857142857,0.018924625509131994
27.085714285714285,0.018740618286619673
27.2,0.01860298166956587
27.314285714285713,0.018402065293414493
27.428571428571427,0.01803185518709353
27.54285714285714,0.017394382197307687
27.657142857142855,0.01645044774439206
27.771428571428572,0.015275823879755266
27.885714285714286,0.014038406463042583
28.0,0.012904073680601105
28.114285714285714,0.011981378326471058
28.228571428571428,0.011362891474402628
28.34285714285714,0.011175304700479522
28.457142857142856,0.011520624860081576
28.57142857142857,0.012334641812220305
28.685714285714283,0.013326549684482776
28.8,0.014109683982460212
28.914285714285715,0.014434295189047847
29.02857142857143,0.014319051030060925
29.142857142857142,0.013981654496924529
29.257142857142856,0.013660248426439732
29.37142857142857,0.013479278713764758
29.485714285714284,0.01342103038059083
29.599999999999998,0.013371099801097148
29.71428571428571,0.013201120410522562
29.82857142857143,0.012864161007074713
29.942857142857143,0.012444315319448595
30.057142857142857,0.012099513299725535
30.17142857142857,0.011938171652624615
30.285714285714285,0.011960927496288314
30.4,0.012124407512065451
30.514285714285712,0.01242670034885687
30.628571428571426,0.012897613077152505
30.74285714285714,0.013520033842672759
30.857142857142858,0.014198532019314297
30.97142857142857,0.014812975273533435
31.085714285714285,0.015280705678078935
31.2,0.015556045325129667
31.314285714285713,0.015595292867765034
31.428571428571427,0.015369001737266396
31.54285714285714,0.01493441479924187
31.657142857142855,0.014471998117582211
31.77142857142857,0.014198945758916327
31.885714285714286,0.014215975905199369
32.0,0.014440215259059632
32.114285714285714,0.014690559756065714
32.22857142857143,0.014831203421435207
32.34285714285714,0.014839756603796814
32.457142857142856,0.014766434831156661
32.57142857142857,0.014649499779828814
32.68571428571428,0.014464983041466333
32.8,0.014147539402885236
32.91428571428571,0.013663695914697831
33.028571428571425,0.013068478508570347
33.14285714285714,0.01248174998982182
33.25714285714285,0.012001013560242165
33.371428571428574,0.011635019545596197
33.48571428571429,0.011314822346863759
33.6,0.010963452838751808
33.714285714285715,0.010568253142160896
33.82857142857143,0.01020716039797253
33.94285714285714,0.010005636451297518
34.05714285714286,0.010045998597282484
34.17142857142857,0.010298499193051872
34.285714285714285,0.010639431349393077
34.4,0.010950168397307525
34.51428571428571,0.011214751771721657
34.628571428571426,0.01152666398123708
34.74285714285714,0.011989852974035623
34.857142857142854,0.012594910233152653
34.97142857142857,0.013177010989082734
35.08571428571428,0.01348679095275194
35.199999999999996,0.01331764392888505
35.31428571428572,0.012622704946850603
35.42857142857143,0.011574615347831546
35.542857142857144,0.01051137620433201
35.65714285714286,0.009752209598449963
35.77142857142857,0.009400185263066548
35.885714285714286,0.009307773238662808
36.0,0.009237267100698438
36.114285714285714,0.009054246347807545
36.22857142857143,0.008781792441556933
36.34285714285714,0.008508140445239776
36.457142857142856,0.008277451788132292
36.57142857142857,0.00807320715209034
36.68571428571428,0.007883615180182883
36.8,0.007755698305772454
36.91428571428571,0.007771417060662082
37.028571428571425,0.00797120023593191
37.14285714285714,0.008305197332039011
37.25714285714285,0.008657791092472764
37.371428571428574,0.00891556301512705
37.48571428571429,0.009016653718517273
37.6,0.008950868147624174
37.714285714285715,0.008730823465683392
37.82857142857143,0.008378351909794364
37.94285714285714,0.007948465327482411
38.05714285714286,0.007560397292959695
38.17142857142857,0.007375070288553146
38.285714285714285,0.007501306240489052
38.4,0.00790109881697213
38.51428571428571,0.008394555008613446
38.628571428571426,0.00877977485206153
38.74285714285714,0.00896285142581431
38.857142857142854,0.008979345371722921
38.97142857142857,0.008905313667046237
39.08571428571428,0.008770166098391274
39.199999999999996,0.008564000875575527
39.31428571428571,0.00830675566530658
39.42857142857143,0.008070876158582355
39.542857142857144,0.007917485003574648
39.65714285714286,0.007826152916761238
39.77142857142857,0.007709587157372967
39.885714285714286,0.007497674856800633
40.0,0.007197096123593398
40.114285714285714,0.006874402163966849
40.22857142857143,0.006600620202055015
40.34285714285714,0.006420519829234358
40.457142857142856,0.006357974758456793
40.57142857142857,0.006421920479540277
40.68571428571428,0.006593500643883364
40.8,0.006819127631218674
40.91428571428571,0.0070360730820715365
41.028571428571425,0.007212545937716378
41.14285714285714,0.007359529793172276
41.25714285714285,0.007506332897258881
41.371428571428574,0.007675754948859261
41.48571428571429,0.007881105172333591
41.6,0.008120545869009869
41.714285714285715,0.008348328850122945
41.82857142857143,0.008461771332904797
41.94285714285714,0.008357450727124531
42.05714285714286,0.008029801270031157
42.17142857142857,0.007609980425620626
42.285714285714285,0.0072879415752172974
42.4,0.0071812502026588915
42.51428571428571,0.0072654709531839
42.628571428571426,0.007412793489262517
42.74285714285714,0.00748628339065957
42.857142857142854,0.007408422047545366
42.97142857142857,0.007172775609766849
43.08571428571428,0.006824400755423902
43.199999999999996,0.00643891408619817
43.31428571428571,0.0061010517816386224
43.42857142857143,0.005874391403180919
43.542857142857144,0.005771407276904098
43.65714285714286,0.005744615070003437
43.77142857142857,0.005712058509879407
43.885714285714286,0.005610492651599515
44.0,0.0054440473923261954
44.114285714285714,0.0052877057639259106
44.22857142857143,0.005236178735623386
44.34285714285714,0.005335304619594919
44.457142857142856,0.005546585038314479
44.57142857142857,0.005766945005406071
44.68571428571428,0.005887090263703168
44.8,0.005852680230867113
44.91428571428571,0.005697433629008215
45.028571428571425,0.005531165350875915
45.14285714285714,0.005480850499254281
45.25714285714285,0.0056105063045835514
45.37142857142857,0.00587661594458826
45.48571428571429,0.006162230910595928
45.6,0.006363829877682743
45.714285714285715,0.0064531658720045956
45.82857142857143,0.006465764163663788
45.94285714285714,0.006442067080397241
46.05714285714286,0.006384083969196066
46.17142857142857,0.006263631434332855
46.285714285714285,0.006066883720715437
46.4,0.005830651103823777
46.51428571428571,0.005635842814325977
46.628571428571426,0.005560339378007947
46.74285714285714,0.005627301504579076
46.857142857142854,0.005788999121251666
46.97142857142857,0.005958289643466763
47.08571428571428,0.006063452945707957
47.199999999999996,0.006085290352328786
47.31428571428571,0.006051037921024819
47.42857142857143,0.005996340380440295
47.542857142857144,0.005933034902723589
47.65714285714286,0.0058514855861486375
47.77142857142857,0.0057496401101615625
47.885714285714286,0.005654137097311113
48.0,0.0056109966487511865
48.114285714285714,0.005658829332153178
48.22857142857143,0.005810068756238171
48.34285714285714,0.0060436233025369405
48.457142857142856,0.006297622058291272
48.57142857142857,0.0064710692740485055
48.68571428571428,0.006460832508931631
48.8,0.006231321923547925
48.91428571428571,0.005867014849196862
49.028571428571425,0.00556919213564722
49.14285714285714,0.005652671400064504
49.25714285714285,0.0066936576304650434
49.37142857142857,0.009917836240874302
49.48571428571429,0.017555956566288625
49.6,0.032346620434731306
49.714285714285715,0.0553867636741958
49.82857142857143,0.08311584147882174
49.94285714285714,0.10656267115795448
50.05714285714286,0.11556612853890358
50.17142857142857,0.10578792900071968
50.285714285714285,0.08209596888741433
50.4,0.05482131558675701
50.51428571428571,0.03272221734315116
50.628571428571426,0.01900888982459902
50.74285714285714,0.012300007934563305
50.857142857142854,0.009662676832920528
50.97142857142857,0.008726804356482232
51.08571428571428,0.008217882295082468
51.199999999999996,0.007672440880694607
51.31428571428571,0.007034576112666176
51.42857142857142,0.006376495774100403
51.542857142857144,0.005765465186019591
51.65714285714286,0.005246123471264429
51.77142857142857,0.004869570627080395
51.885714285714286,0.004692699135366853
52.0,0.004732997929098543
52.114285714285714,0.004935229968422914
52.22857142857143,0.005198611748020745
52.34285714285714,0.005438858644087097
52.457142857142856,0.005620039743727764
52.57142857142857,0.005737063019709304
52.68571428571428,0.005789866017461398
52.8,0.0057817182260943185
52.91428571428571,0.00572498120151657
53.028571428571425,0.0056311804452472795
53.14285714285714,0.005500274628160329
53.25714285714285,0.005335242945102461
53.37142857142857,0.005168640411713182
53.48571428571429,0.005058306028745914
53.6,0.00504279300663615
53.714285714285715,0.005106342132869347
53.82857142857143,0.005203845937191712
53.94285714285714,0.005322534372113955
54.05714285714286,0.0055009862353899526
54.17142857142857,0.005772495220247232
54.285714285714285,0.006096073294685234
54.4,0.0063562468163923256
54.51428571428571,0.006433515196799851
54.628571428571426,0.00627927593866338
54.74285714285714,0.005940907436591575
54.857142857142854,0.005532843089787985
54.97142857142857,0.0051821811916240475
55.08571428571428,0.004983750575450838
