Frequency,PSD
6.0,0.48549835218170884
6.08,0.48574839002946674
6.16,0.48625171425662617
6.24,0.4870146541060449
6.32,0.4880462909983347
6.4,0.48935798316401713
6.48,0.49096276343820244
6.5600000000000005,0.4928746354003966
6.640000000000001,0.4951077970681111
6.72,0.4976758240564081
6.8,0.5005908454046081
6.88,0.5038627451280544
6.96,0.5074984210304702
7.04,0.5115011295294323
7.12,0.5158699413772274
7.2,0.5205993284176735
7.28,0.5256788961505496
7.36,0.5310932711369418
7.44,0.5368221464286043
7.5200000000000005,0.5428404824866235
7.6000000000000005,0.5491188556895957
7.68,0.55562394170692
7.76,0.5623191168780951
7.84,0.5691651574017061
7.92,0.5761210136631604
8.0,0.5831446354419938
8.08,0.5901938230234772
8.16,0.5972270793477826
8.24,0.6042044391882221
8.32,0.6110882528623265
8.4,0.6178439040363406
8.48,0.6244404436688369
8.56,0.6308511249362071
8.64,0.6370538269810978
8.72,0.6430313584243779
8.8,0.6487716346960004
8.88,0.6542677263004915
8.96,0.6595177780857592
9.040000000000001,0.6645248023923128
9.120000000000001,0.6692963515999241
9.200000000000001,0.6738440780464998
9.28,0.6781831915614835
9.36,0.6823318269273732
9.44,0.6863103354494221
9.52,0.690140516461672
9.6,0.6938448060060575
9.68,0.6974454410617243
9.76,0.7009636185383445
9.84,0.704418668740225
9.92,0.7078272631168567
10.0,0.7112026758032691
10.08,0.7145541176915547
10.16,0.7178861605471655
10.24,0.7211982669902497
10.32,0.724484440021995
10.4,0.7277330032266403
10.48,0.7309265198779711
10.56,0.7340418559973132
10.64,0.7370503890335943
10.72,0.7399183603582151
10.8,0.7426073662848607
10.88,0.7450749789318855
10.96,0.747275485031655
11.040000000000001,0.7491607278370784
11.120000000000001,0.7506810346491257
11.200000000000001,0.7517862102466656
11.28,0.752426574685771
11.36,0.7525540225830636
11.44,0.7521230801309393
11.52,0.751091935728543
11.6,0.7494234202624326
11.68,0.7470859137417083
11.76,0.7440541561863954
11.84,0.7403099423822744
11.92,0.7358426823407239
12.0,0.7306498120197487
12.08,0.7247370420415143
12.16,0.7181184357367885
12.24,0.7108163117948487
12.32,0.7028609710169906
12.4,0.6942902510622475
12.48,0.6851489175171982
12.56,0.6754879039853212
12.64,0.665363418033188
12.72,0.6548359336053187
12.8,0.643969093785238
12.88,0.6328285504071087
12.96,0.621480768899698
13.040000000000001,0.609991827787971
13.120000000000001,0.5984262424347785
13.200000000000001,0.5868458418590756
13.280000000000001,0.575308725838289
13.36,0.5638683270477647
13.44,0.5525725998002478
13.52,0.5414633531421802
13.6,0.5305757417825429
13.68,0.5199379237297772
13.76,0.509570888755539
13.84,0.4994884570521101
13.92,0.48969744285679573
14.0,0.4801979735215592
14.08,0.47098395063146103
14.16,0.4620436364224707
14.24,0.45336034599688924
14.32,0.4449132237394242
14.4,0.43667808093319116
14.48,0.42862827087568955
14.56,0.42073557779312365
14.64,0.41297109652124075
14.72,0.4053060812179988
14.8,0.397712743236594
14.88,0.3901649806393097
14.96,0.38263902458148047
15.040000000000001,0.3751139908364038
15.120000000000001,0.3675723279529166
15.200000000000001,0.36000015681919806
15.280000000000001,0.3523874996307816
15.36,0.34472839931531885
15.44,0.33702093325089555
15.52,0.329267127546098
15.6,0.321472780168901
15.68,0.31364720278448766
15.76,0.30580289228373403
15.84,0.29795514367569476
15.92,0.2901216163238026
16.0,0.28232186548950733
16.080000000000002,0.27457685088219186
16.16,0.2669084334763009
16.240000000000002,0.25933887131561395
16.32,0.2518903244368723
16.4,0.24458437844772396
16.48,0.23744159570173096
16.56,0.23048110241763592
16.64,0.22372021946243476
16.72,0.21717414381427563
16.8,0.2108556868905291
16.88,0.20477507491853209
16.96,0.19893981530191365
17.04,0.193354631472997
17.12,0.18802146702548583
17.2,0.18293955802408615
17.28,0.17810557035061214
17.36,0.17351379685758483
17.44,0.1691564070686398
17.52,0.16502374031025863
17.6,0.16110463160270674
17.68,0.1573867584911705
17.76,0.15385699635213992
17.84,0.15050176962682885
17.92,0.1473073869384464
18.0,0.14426034912938018
18.080000000000002,0.14134762085392794
18.16,0.13855685839183504
18.240000000000002,0.13587658868735264
18.32,0.13329633712672173
18.400000000000002,0.1308067040926557
18.48,0.12839939272746193
18.56,0.12606719245922948
18.64,0.12380392458244727
18.72,0.12160435745002415
18.8,0.11946409957761017
18.88,0.11737947917052849
18.96,0.11534741828239263
19.04,0.11336530905963572
19.12,0.11143089840207096
19.2,0.10954218598017056
19.28,0.10769733900981884
19.36,0.1058946256115393
19.44,0.10413236708348486
19.52,0.10240890809136768
19.6,0.10072260269916282
19.68,0.09907181338269386
19.76,0.09745491970856189
19.84,0.0958703332216877
19.92,0.09431651524038517
20.0,0.09279199466257931
20.080000000000002,0.09129538347968902
20.16,0.08982538840575553
20.240000000000002,0.08838081778551213
20.32,0.08696058367610007
20.400000000000002,0.08556369964110608
20.48,0.08418927530310619
20.56,0.08283650903812792
20.64,0.08150468034564376
20.72,0.08019314339142808
20.8,0.07890132301437093
20.88,0.07762871414217905
20.96,0.07637488511500753
21.04,0.07513948491683943
21.12,0.07392225381020612
21.2,0.0727230364069194
21.28,0.07154179582640689
21.36,0.0703786273259702
21.44,0.06923376965513567
21.52,0.06810761239890091
21.6,0.06700069773012453
21.68,0.06591371527677274
21.76,0.06484748920334274
21.84,0.06380295707872861
21.92,0.06278114062185232
22.0,0.06178310894657694
22.080000000000002,0.060809935434421696
22.16,0.05986264981595843
22.240000000000002,0.0589421874126127
22.32,0.05804933775892349
22.400000000000002,0.057184694976659706
22.48,0.056348612299022195
22.56,0.05554116304459283
22.64,0.054762110122212944
22.72,0.0540108858206697
22.8,0.053286583216893064
22.88,0.05258796004324471
22.96,0.051913455311447705
23.04,0.0512612184229103
23.12,0.05062914992908879
23.2,0.05001495256769083
23.28,0.049416190716888124
23.36,0.04883035600422602
23.44,0.048254936500663266
23.52,0.04768748674011833
23.6,0.04712569574280422
23.68,0.046567450292323204
23.76,0.0460108909209191
23.84,0.04545445838637767
23.92,0.04489692886260324
24.0,0.04433743659211754
24.080000000000002,0.043775483335173795
24.16,0.04321093456530539
24.240000000000002,0.0426440029709029
24.32,0.04207522039268396
24.400000000000002,0.041505399825429654
24.48,0.04093558951117689
24.560000000000002,0.0403670214284277
24.64,0.03980105662400333
24.72,0.03923912983602065
24.8,0.03868269572253848
24.88,0.038133178754238585
24.96,0.03759192847266955
25.04,0.03706018138610585
25.12,0.03653903030526433
25.2,0.036029401444964235
25.28,0.035532039168460754
25.36,0.03504749785822822
25.44,0.03457614008436347
25.52,0.034118140025935835
25.6,0.033673490989448905
25.68,0.03324201586106601
25.76,0.03282337941596319
25.84,0.03241710157229655
25.92,0.03202257089651369
26.0,0.03163905791541114
26.080000000000002,0.03126572804180413
26.16,0.030901654149818762
26.240000000000002,0.030545829021141457
26.32,0.030197178009071114
26.400000000000002,0.029854572323563193
26.48,0.029516843325471172
26.560000000000002,0.02918279813682701
26.64,0.02885123673743678
26.72,0.028520970542447288
26.8,0.028190842260186824
26.88,0.027859746635098222
26.96,0.027526651506775583
27.04,0.027190618480345038
27.12,0.02685082241892283
27.2,0.02650656894390651
27.28,0.026157309166030596
27.36,0.02580265096655772
27.44,0.02544236629574586
27.52,0.025076394142854664
27.6,0.024704839043552352
27.68,0.02432796521050176
27.76,0.02394618658485927
27.84,0.023560053295680866
27.92,0.023170235168435215
28.0,0.022777503034022876
28.080000000000002,0.022382708650712534
28.16,0.02198676406200552
28.240000000000002,0.021590621176112726
28.32,0.021195252273243287
28.400000000000002,0.0208016320335168
28.48,0.020410721541089912
28.560000000000002,0.020023454569827653
28.64,0.01964072630345759
28.72,0.01926338449860952
28.8,0.018892222971134673
28.88,0.01852797718131355
28.96,0.01817132161651434
29.04,0.017822868622777505
29.12,0.01748316831956801
29.2,0.01715270924244647
29.28,0.01683191939272243
29.36,0.016521167426063008
29.44,0.01622076377736964
29.52,0.01593096159055312
29.6,0.015651957392733635
29.68,0.015383891517107277
29.76,0.015126848332448527
29.84,0.014880856376498601
29.92,0.014645888513342245
30.0,0.014421862240938377
30.080000000000002,0.014208640265450134
30.16,0.014006031436471155
30.240000000000002,0.013813792105369703
30.32,0.013631627932167805
30.400000000000002,0.013459196129320379
30.48,0.013296108097998837
30.560000000000002,0.013141932387881696
30.64,0.012996197897914544
30.72,0.01285839723461634
30.8,0.012727990156356695
30.88,0.012604407055287167
30.96,0.012487052460485855
31.04,0.012375308582530779
31.12,0.012268538956590505
31.2,0.012166092273327225
31.28,0.012067306509880539
31.36,0.01197151348303599
31.44,0.011878043940675707
31.52,0.011786233284545207
31.6,0.011695427977714131
31.68,0.01160499263606671
31.76,0.011514317738513793
31.84,0.011422827820465992
31.92,0.011329989945416681
32.0,0.011235322186564294
32.08,0.011138401800373912
32.160000000000004,0.011038872742130024
32.24,0.010936452163898389
32.32,0.010830935550218534
32.4,0.010722200186643448
32.480000000000004,0.010610206719280724
32.56,0.010494998646144865
32.64,0.010376699678150816
32.72,0.010255509012423057
32.8,0.010131694666053202
32.88,0.010005585117112279
32.96,0.00987755958477787
33.04,0.009748037345958681
33.12,0.00961746652745121
33.2,0.009486312827867082
33.28,0.009355048611732543
33.36,0.009224142780654844
33.44,0.009094051766468556
33.52,0.008965211913472826
33.6,0.008838033427029981
33.68,0.008712895970261033
33.76,0.00859014589581411
33.84,0.008470095011759531
33.92,0.008353020704877756
34.0,0.00823916718503409
34.08,0.0081287475738132
34.160000000000004,0.008021946540362113
34.24,0.007918923187383567
34.32,0.007819813908921114
34.4,0.007724734976442253
34.480000000000004,0.0076337846572667985
34.56,0.007547044725665199
34.64,0.007464581287670536
34.72,0.007386444901682689
34.800000000000004,0.007312670034377317
34.88,0.0072432739419898366
34.96,0.007178255108058239
35.04,0.007117591398386868
35.12,0.007061238111322403
35.2,0.007009126106291492
35.28,0.006961160186520203
35.36,0.006917217894243433
35.44,0.006877148850301823
35.52,0.006840774737027898
35.6,0.006807889986123968
35.68,0.006778263194309941
35.76,0.006751639251216805
35.84,0.006727742128482601
35.92,0.006706278248019049
36.0,0.006686940322410789
36.08,0.0066694115422095785
36.160000000000004,0.006653369974013897
36.24,0.006638493029584246
36.32,0.006624461869446423
36.4,0.006610965613632066
36.480000000000004,0.006597705246414367
36.56,0.006584397119799375
36.64,0.006570775980915054
36.72,0.006556597469925779
36.800000000000004,0.00654164005655081
36.88,0.0065257064035871655
36.96,0.00650862416421575
37.04,0.006490246235651308
37.12,0.0064704505045639835
37.2,0.006449139129427882
37.28,0.006426237411713774
37.36,0.006401692311798808
37.44,0.006375470667107966
37.52,0.006347557169777145
37.6,0.0063179521596344245
37.68,0.006286669286093353
37.76,0.006253733090187145
37.84,0.006219176555871848
37.92,0.006183038678281788
38.0,0.006145362095929886
38.08,0.006106190834039913
38.160000000000004,0.0060655682069970344
38.24,0.006023534929070077
38.32,0.005980127483546224
38.4,0.005935376800642957
38.480000000000004,0.00588930729336032
38.56,0.00584193629712082
38.64,0.0057932739530245775
38.72,0.005743323565368578
38.800000000000004,0.005692082451480708
38.88,0.005639543285956403
38.96,0.005585695922375665
39.04,0.0055305296542091905
39.12,0.005474035853858827
39.2,0.005416210905900113
39.28,0.005357059329020168
39.36,0.0052965969624483135
39.44,0.005234854078367359
39.52,0.005171878273267946
39.6,0.00510773698955847
39.68,0.0050425195247379845
39.76,0.004976338399301818
39.84,0.00490932997609648
39.92,0.004841654252225715
40.0,0.004773493778637535
40.08,0.0047050517004154635
40.160000000000004,0.004636548950597666
40.24,0.004568220669787638
40.32,0.004500311960696746
40.4,0.004433073118904564
40.480000000000004,0.004366754506720813
40.56,0.004301601254583188
40.64,0.004237847983016999
40.72,0.004175713737360103
40.800000000000004,0.004115397317463699
40.88,0.0040570731660704
40.96,0.004000887953846907
41.04,0.003946957967644409
41.12,0.0038953673734199888
41.2,0.003846167388332094
41.28,0.0037993763598708537
41.36,0.0037549807153254827
41.44,0.003712936714063814
41.52,0.003673172909245356
41.6,0.003635593205605853
41.68,0.003600080386273836
41.76,0.0035664999742689727
41.84,0.0035347042930484107
41.92,0.00350453659463147
42.0,0.0034758351325379303
42.08,0.0034484370691194484
42.160000000000004,0.003422182121756139
42.24,0.0033969158689044817
42.32,0.00337249265416722
42.4,0.003348778043720255
42.480000000000004,0.003325650808928384
42.56,0.003303004421447704
42.64,0.003280748062228227
42.72,0.00325880715848935
42.800000000000004,0.0032371234738366164
42.88,0.0032156547862489254
42.96,0.0031943741966217534
43.04,0.0031732691169375406
43.12,0.003152339991844633
43.2,0.003131598810415105
43.28,0.0031110674660103687
43.36,0.0030907760214427243
43.44,0.0030707609339605552
43.52,0.0030510632900424516
43.6,0.003031727093757309
43.68,0.0030127976447907184
43.76,0.0029943200336047734
43.84,0.0029763377721080987
43.92,0.0029588915692775435
44.0,0.0029420182530586186
44.08,0.0029257498331588822
44.160000000000004,0.0029101126945910247
44.24,0.0028951269093661133
44.32,0.0028808056537363205
44.4,0.0028671547207710386
44.480000000000004,0.0028541721224800524
44.56,0.002841847781598992
44.64,0.0028301633197989288
44.72,0.0028190919555499527
44.800000000000004,0.0028085985303065355
44.88,0.002798639685154822
44.96,0.00278916421091833
45.04,0.0027801135924425315
45.12,0.0027714227621717866
45.2,0.002763021069379021
45.28,0.002754833459925601
45.36,0.002746781848050198
45.44,0.002738786647421389
45.52,0.0027307684147296046
45.6,0.002722649546710535
45.68,0.0027143559618729267
45.76,0.002705818692397416
45.84,0.0026969753104399974
45.92,0.002687771116889077
46.0,0.002678160029499551
46.08,0.002668105120970446
46.160000000000004,0.002657578775175848
46.24,0.002646562450388766
46.32,0.002635046060621045
46.4,0.0026230270087006582
46.480000000000004,0.0026105089258948375
46.56,0.00259750019132891
46.64,0.00258401231885615
46.72,0.0025700583083932207
46.800000000000004,0.0025556510623306675
46.88,0.0025408019651634167
46.96,0.0025255197159987364
47.04,0.0025098094895710348
47.12,0.0024936724826137187
47.2,0.0024771058800212437
47.28,0.002460103250508938
47.36,0.0024426553559268697
47.44,0.0024247513335261435
47.52,0.002406380187792087
47.6,0.00238753250930826
47.68,0.002368202323609365
47.76,0.0023483889639984955
47.84,0.002328098859323245
47.92,0.002307347130916272
48.0,0.0022861589020599198
48.08,0.0022645702378744532
48.160000000000004,0.002242628652578179
48.24,0.0022203931434469117
48.32,0.0021979337352342684
48.4,0.0021753305438449236
48.480000000000004,0.002152672392281077
48.56,0.002130055033974579
48.64,0.0021075790574053357
48.72,0.002085347560482863
48.800000000000004,0.002063463692885785
48.88,0.0020420281691011302
48.96,0.002021136854287557
49.04,0.0020008785195832837
49.120000000000005,0.001981332853653213
49.2,0.0019625688038646047
49.28,0.0019446433043780742
49.36,0.0019276004305890382
49.44,0.0019114710006854115
49.52,0.0018962726264989786
49.6,0.0018820101980780365
49.68,0.0018686767701535725
49.76,0.0018562548043981296
49.84,0.0018447177094612667
49.92,0.0018340316113966276
50.0,0.0018241572804312406
50.08,0.0018150521360796139
50.160000000000004,0.0018066722513664264
50.24,0.0017989742783164689
50.32,0.0017919172208378728
50.4,0.001785463987514762
50.480000000000004,0.0017795826655195475
50.56,0.0017742474676413732
50.64,0.00176943931705845
50.72,0.0017651460486204328
50.800000000000004,0.0017613622206200975
50.88,0.0017580885468396722
50.96,0.0017553309744158287
51.04,0.00175309944815202
51.120000000000005,0.0017514064156049815
51.2,0.0017502651389140512
51.28,0.0017496878882751997
51.36,0.0017496840976808162
51.44,0.0017502585656665667
51.52,0.001751409782129315
51.6,0.0017531284568392258
51.68,0.001755396316312531
51.76,0.0017581852236763992
51.84,0.0017614566617237416
51.92,0.0017651616032898342
52.0,0.0017692407762895292
52.08,0.001773625314154129
52.160000000000004,0.0017782377668629223
52.24,0.0017829934340955755
52.32,0.0017878019708354384
52.4,0.0017925692075118974
52.480000000000004,0.0017971991216667645
52.56,0.0018015958962130322
52.64,0.0018056660003855883
52.72,0.001809320233098228
52.800000000000004,0.0018124756740978305
52.88,0.0018150574954375713
52.96,0.001817000593750456
53.04,0.0018182510119969884
53.120000000000005,0.0018187671272459687
53.2,0.0018185205882428413
53.28,0.0018174969927147898
53.36,0.0018156962994911015
53.44,0.0018131329745357154
53.52,0.0018098358731005
53.6,0.001805847862614944
53.68,0.0018012251929324166
53.76,0.001796036622469673
53.84,0.0017903623108884862
53.92,0.0017842924914908713
54.0,0.001777925939603184
54.08,0.0017713682569188709
54.160000000000004,0.001764729996020203
54.24,0.0017581246539385411
54.32,0.0017516665683780944
54.4,0.0017454687548522298
54.480000000000004,0.001739640727083248
54.56,0.0017342863462887072
54.64,0.0017295017470948392
54.72,0.001725373388506749
54.800000000000004,0.0017219762774630049
54.88,0.0017193724098917723
54.96,0.0017176094698771716
55.04,0.0017167198216283194
