Frequency,PSD
6.0,0.5068463752261401
6.08,0.5064641121006326
6.16,0.5057023653664496
6.24,0.5045668817201026
6.32,0.5030667321030411
6.4,0.5012148034753986
6.48,0.49902837746633005
6.5600000000000005,0.4965297390703285
6.640000000000001,0.49374675381297634
6.72,0.4907133507845547
6.8,0.4874698507140375
6.88,0.48406308187926067
6.96,0.48054623151540193
7.04,0.47697838650889957
7.12,0.47342372528014276
7.2,0.4699503341796835
7.28,0.46662863798392107
7.36,0.4635294564105953
7.44,0.4607217273423668
7.5200000000000005,0.4582699716517836
7.6000000000000005,0.4562316115478958
7.68,0.4546542900400074
7.76,0.4535733681286713
7.84,0.4530097929963398
7.92,0.45296852968049106
8.0,0.45343772699501383
8.08,0.45438874486407926
8.16,0.45577710687765866
8.24,0.45754436408992905
8.32,0.45962077193747986
8.4,0.46192860154188825
8.48,0.46438583994815147
8.56,0.46690999035892944
8.64,0.46942166996193074
8.72,0.47184772263978847
8.8,0.47412361548716364
8.88,0.4761949660766541
8.96,0.478018142553096
9.040000000000001,0.47955997916855625
9.120000000000001,0.4807967432313759
9.200000000000001,0.48171256399351575
9.28,0.4822975806630735
9.36,0.48254608023003254
9.44,0.48245487533602416
9.52,0.4820221216912425
9.6,0.481246701083872
9.68,0.48012821007764445
9.76,0.4786675075071366
9.84,0.4768676969582633
9.92,0.47473536287153
10.0,0.4722818471361221
10.08,0.469524349906693
10.16,0.4664866630163782
10.24,0.46319939254087006
10.32,0.4596995918873187
10.4,0.45602979966264856
10.48,0.4522365483900811
10.56,0.4483684723221718
10.64,0.4444741881195665
10.72,0.4406001463025385
10.8,0.43678865216995993
10.88,0.4330762332282972
10.96,0.42949248964693093
11.040000000000001,0.4260595105363053
11.120000000000001,0.42279187893492287
11.200000000000001,0.4196972296638679
11.28,0.41677727342226994
11.36,0.4140291629135433
11.44,0.4114470555200872
11.52,0.4090237227303457
11.6,0.40675206743190073
11.68,0.40462643266702436
11.76,0.40264361470976945
11.84,0.400803524372954
11.92,0.39910946903104766
12.0,0.39756805117423083
12.08,0.3961886965021807
12.16,0.3949828366077754
12.24,0.3939627806049638
12.32,0.3931403196875929
12.4,0.3925251213375675
12.48,0.3921229872965484
12.56,0.3919340711730932
12.64,0.3919511752558198
12.72,0.39215826744734517
12.8,0.39252937277206335
12.88,0.3930279941071268
12.96,0.39360719923930637
13.040000000000001,0.39421047391845215
13.120000000000001,0.39477338416709296
13.200000000000001,0.3952260199435656
13.280000000000001,0.3954961135650662
13.36,0.39551264938951497
13.44,0.39520971619437245
13.52,0.39453030974110065
13.6,0.39342977715288
13.68,0.3918786104856698
13.76,0.3898643436799435
13.84,0.38739238031204154
13.92,0.38448567117051585
14.0,0.3811832603702175
14.08,0.37753781543486215
14.16,0.3736123402636757
14.24,0.3694763320116693
14.32,0.3652016785705883
14.4,0.36085860089477473
14.48,0.3565119255060176
14.56,0.3522179314098529
14.64,0.3480219583438564
14.72,0.3439568964075696
14.8,0.3400426070835869
14.88,0.336286257905355
14.96,0.33268349174421724
15.040000000000001,0.3292202997837748
15.120000000000001,0.3258754265925552
15.200000000000001,0.3226231074769744
15.280000000000001,0.3194359233070559
15.36,0.31628755687039434
15.44,0.3131552479034061
15.52,0.3100217711840691
15.6,0.30687680254212657
15.68,0.3037175892862328
15.76,0.30054890093246883
15.84,0.2973822984900131
15.92,0.29423482017672337
16.0,0.2911272321921801
16.080000000000002,0.28808202940221783
16.16,0.2851213881204056
16.240000000000002,0.2822652692839871
16.32,0.279529845411842
16.4,0.276926381630643
16.48,0.27446064493378747
16.56,0.27213285354946243
16.64,0.26993811745450613
16.72,0.26786726902132807
16.8,0.2659079456082592
16.88,0.26404576763347753
16.96,0.2622654578144647
17.04,0.2605517686678557
17.12,0.25889012250502375
17.2,0.25726691563075493
17.28,0.25566948977167353
17.36,0.25408582221984566
17.44,0.25250402569274644
17.52,0.250911774754998
17.6,0.24929578497265123
17.68,0.24764146308513837
17.76,0.2459328228480046
17.84,0.24415272518368858
17.92,0.24228345766020123
18.0,0.24030762266720437
18.080000000000002,0.23820926162311212
18.16,0.23597510915831718
18.240000000000002,0.2335958503033386
18.32,0.2310672474622601
18.400000000000002,0.22839101273787743
18.48,0.2255753235731795
18.56,0.2226349127386023
18.64,0.21959070340237377
18.72,0.21646900182603201
18.8,0.21330029964277109
18.88,0.21011777080546537
18.96,0.20695557223196553
19.04,0.20384707026015944
19.12,0.2008231168784502
19.2,0.19791049112246464
19.28,0.19513060376551375
19.36,0.19249853983096454
19.44,0.19002248613895323
19.52,0.18770356263827614
19.6,0.1855360489387549
19.68,0.183507973062309
19.76,0.18160200925581568
19.84,0.17979661652075596
19.92,0.178067339629229
20.0,0.1763881897796276
20.080000000000002,0.17473302242125774
20.16,0.17307683471539423
20.240000000000002,0.17139691407722576
20.32,0.16967378166656705
20.400000000000002,0.16789188989596238
20.48,0.16604005022811744
20.56,0.16411158582655863
20.64,0.16210422193328572
20.72,0.16001974396306412
20.8,0.15786346793595127
20.88,0.15564357876248477
20.96,0.15337039798340474
21.04,0.15105564314306208
21.12,0.14871173585839478
21.2,0.1463512052772657
21.28,0.14398621909625572
21.36,0.14162825729329823
21.44,0.13928792626977093
21.52,0.13697489534095023
21.6,0.13469792540349734
21.68,0.13246495257035956
21.76,0.1302831882790475
21.84,0.12815920167520695
21.92,0.12609895895614015
22.0,0.1241078061917105
22.080000000000002,0.122190394929603
22.16,0.12035056162835205
22.240000000000002,0.11859118094675256
22.32,0.1169140180199877
22.400000000000002,0.11531960564165707
22.48,0.11380716902242154
22.56,0.11237461436992315
22.64,0.11101858916757405
22.72,0.10973461309113153
22.8,0.10851727026495842
22.88,0.10736044702818574
22.96,0.10625759519282132
23.04,0.1052019991863139
23.12,0.10418702639629618
23.2,0.10320634313125132
23.28,0.10225408336047119
23.36,0.10132496318427175
23.44,0.10041434015202594
23.52,0.09951822242849384
23.6,0.09863323777659647
23.68,0.09775657581978266
23.76,0.09688591864269304
23.84,0.09601937425565521
23.92,0.09515542481754638
24.0,0.09429289711203725
24.080000000000002,0.0934309572253354
24.16,0.09256912552863969
24.240000000000002,0.09170730288336554
24.32,0.09084579536906531
24.400000000000002,0.08998532347101992
24.48,0.0891270028843921
24.560000000000002,0.08827228778083343
24.64,0.08742287298849732
24.72,0.08658055815451203
24.8,0.08574708349808473
24.88,0.08492395214136603
24.96,0.08411225735092731
25.04,0.08331253382301551
25.12,0.08252465032709598
25.2,0.08174775693834997
25.28,0.08098029442849541
25.36,0.08022006701641125
25.44,0.07946437348739235
25.52,0.07871018641029306
25.6,0.07795436530326673
25.68,0.07719388731965365
25.76,0.07642607828232724
25.84,0.07564882744107483
25.92,0.07486077083832242
26.0,0.07406143033935922
26.080000000000002,0.07325129799991592
26.16,0.07243185840634224
26.240000000000002,0.07160554492357615
26.32,0.0707756294503269
26.400000000000002,0.06994604929978102
26.48,0.06912117908966346
26.560000000000002,0.06830555979839675
26.64,0.06750360106158414
26.72,0.06671927590664932
26.8,0.06595582901633311
26.88,0.06521551992613923
26.96,0.06449942111464517
27.04,0.06380728776903781
27.12,0.06313751134956336
27.2,0.06248716336576119
27.28,0.06185212955642046
27.36,0.06122732850160158
27.44,0.06060700309743412
27.52,0.059985068678714205
27.6,0.05935549811211065
27.68,0.05871272198533789
27.76,0.05805202105016673
27.84,0.057369888240825825
27.92,0.05666433877500553
28.0,0.055935148972218886
28.080000000000002,0.055184007457531215
28.16,0.05441456635134631
28.240000000000002,0.053632384863692706
28.32,0.05284476334108601
28.400000000000002,0.05206047207538134
28.48,0.05128938576016977
28.560000000000002,0.050542040917696505
28.64,0.04982913936326209
28.72,0.04916102523564854
28.8,0.048547165765890424
28.88,0.047995666392522084
28.96,0.04751284889134291
29.04,0.04710291697162115
29.12,0.04676772766948396
29.2,0.04650667944323028
29.28,0.04631671989324359
29.36,0.04619246828252031
29.44,0.04612644124469701
29.52,0.04610936478929104
29.6,0.04613055226778817
29.68,0.04617832640728951
29.76,0.04624046366613578
29.84,0.04630464064863518
29.92,0.04635886466247492
30.0,0.046391873232705313
30.080000000000002,0.046393490096675524
30.16,0.046354927629431913
30.240000000000002,0.04626902769092858
30.32,0.04613043460866135
30.400000000000002,0.04593569559975552
30.48,0.04568328564665354
30.560000000000002,0.04537355591526146
30.64,0.04500860741466042
30.72,0.044592094787833894
30.8,0.04412896878280374
30.88,0.04362516981722158
30.96,0.04308728872354842
31.04,0.04252221377822295
31.12,0.04193678500260521
31.2,0.04133747707204514
31.28,0.040730130720013996
31.36,0.040119749212739156
31.44,0.039510371461652746
31.52,0.03890502703163389
31.6,0.038305771284655524
31.68,0.03771379189582555
31.76,0.03712957176144417
31.84,0.03655308860094191
31.92,0.035984028897824386
32.0,0.03542199355655211
32.08,0.034866674815099544
32.160000000000004,0.03431798829118444
32.24,0.03377615002874902
32.32,0.03324169532157085
32.4,0.03271544308534081
32.480000000000004,0.032198415790685955
32.56,0.03169172972806679
32.64,0.03119647312151932
32.72,0.030713590074765033
32.8,0.03024378654272079
32.88,0.029787470774471372
32.96,0.02934473550282589
33.04,0.028915383251795122
33.12,0.028498990256743528
33.2,0.02809499937714499
33.28,0.027702828650383593
33.36,0.027321980224355898
33.44,0.02695213452266052
33.52,0.02659321659360426
33.6,0.026245425385882124
33.68,0.025909221687104904
33.76,0.025585276018148684
33.84,0.02527438318909097
33.92,0.024977354799094444
34.0,0.024694904110315073
34.08,0.02442753902509537
34.160000000000004,0.024175478154215023
34.24,0.02393860224497864
34.32,0.02371644885666318
34.4,0.02350825265951441
34.480000000000004,0.023313027777351426
34.56,0.02312968294611871
34.64,0.022957155646510623
34.72,0.022794548391042585
34.800000000000004,0.022641249406035145
34.88,0.022497021193313343
34.96,0.022362043756652957
35.04,0.02223690424784883
35.12,0.022122530833635808
35.2,0.022020074985679032
35.28,0.02193075239436277
35.36,0.02185565760683613
35.44,0.02179557074008541
35.52,0.021750775878452498
35.6,0.02172090993118136
35.68,0.02170485794040601
35.76,0.021700706446868556
35.84,0.021705761051353863
35.92,0.021716628355672694
36.0,0.021729356645400655
36.08,0.02173962455244184
36.160000000000004,0.021742962965858332
36.24,0.02173499295576491
36.32,0.02171166158577862
36.4,0.021669458201089502
36.480000000000004,0.021605595933852362
36.56,0.02151814649209138
36.64,0.021406120439994427
36.72,0.021269489742568475
36.800000000000004,0.021109153938235568
36.88,0.02092685554991149
36.96,0.020725053934793472
37.04,0.020506769466783207
37.12,0.02027541159091609
37.2,0.02003460482405756
37.28,0.01978802622397069
37.36,0.019539266308243285
37.44,0.019291723033233076
37.52,0.01904853543904754
37.6,0.018812560148046508
37.68,0.018586390292680947
37.76,0.018372412854272654
37.84,0.018172897010056366
37.92,0.017990103084707006
38.0,0.01782639924324498
38.08,0.01768437129655677
38.160000000000004,0.01756691007148581
38.24,0.01747726088119283
38.32,0.0174190208728419
38.4,0.017396072563431356
38.480000000000004,0.017412445785127344
38.56,0.017472105541797203
38.64,0.017578669785087136
38.72,0.017735068531136086
38.800000000000004,0.017943163537448847
38.88,0.018203355227474273
38.96,0.01851420981793385
39.04,0.018872143729079995
39.12,0.019271203446126536
39.2,0.019702976346251906
39.28,0.02015666124083404
39.36,0.020619316596978188
39.44,0.021076290218567623
39.52,0.021511817741730513
39.6,0.021909760240321458
39.68,0.022254435435757586
39.76,0.02253148440592253
39.84,0.022728708017544456
39.92,0.022836805815953272
40.0,0.022849955357917475
40.08,0.022766181719905618
40.160000000000004,0.022587484090883
40.24,0.022319707197314888
40.32,0.021972167557407562
40.4,0.021557065783258358
40.480000000000004,0.021088734040847365
40.56,0.020582780472915427
40.64,0.02005519869216469
40.72,0.019521509964491084
40.800000000000004,0.01899599883834346
40.88,0.018491090861820266
40.96,0.018016905308484227
41.04,0.017580998424049917
41.12,0.017188295539732015
41.2,0.01684119518147357
41.28,0.016539816341319673
41.36,0.016282352161617546
41.44,0.01606548967089165
41.52,0.01588485566504271
41.6,0.01573545271707398
41.68,0.015612055727931813
41.76,0.015509547384660672
41.84,0.015423179366416328
41.92,0.01534875425148692
42.0,0.015282730143067365
42.08,0.015222255597480729
42.160000000000004,0.015165146295296923
42.24,0.015109817049042719
42.32,0.015055183367767011
42.4,0.015000546189934136
42.480000000000004,0.014945471898116852
42.56,0.014889677688233894
42.64,0.014832930086436848
42.72,0.014774962121831877
42.800000000000004,0.014715412526045083
42.88,0.014653788419065564
42.96,0.01458945127537305
43.04,0.014521624533319075
43.12,0.014449419995906437
43.2,0.014371879169065875
43.28,0.014288024917047818
43.36,0.014196918332534288
43.44,0.014097715584760508
43.52,0.013989719779823164
43.6,0.01387242357163066
43.68,0.013745539377661023
43.76,0.013609015496403821
43.84,0.01346303804644987
43.92,0.013308020256392354
44.0,0.013144582015284755
44.08,0.012973523545374184
44.160000000000004,0.012795797433567723
44.24,0.012612482988707532
44.32,0.012424766010636938
44.4,0.012233925696102073
44.480000000000004,0.012041328778894453
44.56,0.011848429367737681
44.64,0.011656771569366663
44.72,0.01146799108857492
44.800000000000004,0.011283811724541667
44.88,0.011106033072991878
44.96,0.010936506728126596
45.04,0.010777099695165309
45.12,0.010629645350368738
45.2,0.010495883876782599
45.28,0.01037739543917695
45.36,0.010275530277910304
45.44,0.01019134031705388
45.52,0.010125516802357275
45.6,0.01007833799044143
45.68,0.010049630133658893
45.76,0.010038744095691972
45.84,0.01004454902779158
45.92,0.010065443731823477
46.0,0.010099385677747284
46.08,0.0101439371197618
46.160000000000004,0.010196327315518134
46.24,0.010253529424879785
46.32,0.010312350181942483
46.4,0.010369529857247404
46.480000000000004,0.010421849360063209
46.56,0.010466240624450078
46.64,0.010499895769325194
46.72,0.010520370037615306
46.800000000000004,0.010525673319687215
46.88,0.01051434524576289
46.96,0.01048550944209671
47.04,0.010438903581842778
47.12,0.010374883260866417
47.2,0.010294399377062564
47.28,0.010198950438920044
47.36,0.010090512909317617
47.44,0.009971454143673925
47.52,0.009844433571702081
47.6,0.009712298401011975
47.68,0.00957798023520924
47.76,0.00944439859112467
47.84,0.00931437640341785
47.92,0.00919057128994304
48.0,0.00907542471750255
48.08,0.008971129378964665
48.160000000000004,0.008879613213960075
48.24,0.00880253673836053
48.32,0.008741298866158723
48.4,0.008697045387295876
48.480000000000004,0.008670673869747465
48.56,0.008662829113350139
48.64,0.008673884466815834
48.72,0.00870390631364148
48.800000000000004,0.008752601717149982
48.88,0.008819252354824803
48.96,0.008902641125153824
49.04,0.009000980754401821
49.120000000000005,0.009111855911849171
49.2,0.009232191336668635
49.28,0.00935825796523849
49.36,0.00948572686814842
49.44,0.009609777020017458
49.52,0.009725257825666635
49.6,0.009826901424962071
49.68,0.009909573772876011
49.76,0.009968548098100395
49.84,0.00999978031452864
49.92,0.010000163892257405
50.0,0.00996774195686675
50.08,0.009901857054559439
50.160000000000004,0.009803223862169157
50.24,0.009673916617719573
50.32,0.009517270469728252
50.4,0.009337703452785744
50.480000000000004,0.009140472561296005
50.56,0.008931382699529289
50.64,0.008716470628733425
50.72,0.008501687166060931
50.800000000000004,0.008292599843068077
50.88,0.008094135275692645
50.96,0.007910376090554637
51.04,0.007744421959513621
51.120000000000005,0.007598318706852044
51.2,0.00747305411502871
51.28,0.007368614407322121
51.36,0.007284091736623833
51.44,0.00721783052471065
51.52,0.007167599209767636
51.6,0.00713077379885658
51.68,0.00710452043669531
51.76,0.007085965796373465
51.84,0.007072346255016827
51.92,0.007061129320809732
52.0,0.007050103422445537
52.08,0.007037434773306305
52.160000000000004,0.007021692419960342
52.24,0.007001844644369563
52.32,0.0069772315073362515
52.4,0.0069475194253622915
52.480000000000004,0.006912644227806491
52.56,0.006872749147356972
52.64,0.006828123694291341
52.72,0.00677914843023365
52.800000000000004,0.006726249397869437
52.88,0.006669864509844343
52.96,0.006610422694639769
53.04,0.00654833517975714
53.120000000000005,0.006483997088271901
53.2,0.006417796632182276
53.28,0.006350128667706395
53.36,0.006281409255669479
53.44,0.006212088125101436
53.52,0.006142656513708042
53.6,0.006073648669445452
53.68,0.006005636239194054
53.76,0.005939215733509122
53.84,0.005874990136634718
53.92,0.005813546440818335
54.0,0.005755431360256907
54.08,0.005701127688456915
54.160000000000004,0.005651033699118223
54.24,0.0056054476783705095
54.32,0.00556455916168232
54.4,0.005528447794517983
54.480000000000004,0.005497090012765925
54.56,0.005470373018850113
54.64,0.00544811487799084
54.72,0.005430089030735668
54.800000000000004,0.005416051152155649
54.88,0.005405766107971107
54.96,0.005399032769759272
55.04,0.0053957046465155645
