Frequency,PSD
6.057142857142857,0.4210588395200879
6.171428571428571,0.43498270808531103
6.285714285714286,0.4606591210922121
6.3999999999999995,0.4948682088594274
6.514285714285714,0.5348846474535285
6.628571428571428,0.5792658137735514
6.742857142857143,0.6270125684466614
6.857142857142857,0.6755391557491969
6.9714285714285715,0.7193233660359153
7.085714285714285,0.7511371799459874
7.2,0.7658291223534408
7.314285714285714,0.764206788735749
7.428571428571428,0.7540376708638952
7.542857142857143,0.7473286301584148
7.657142857142857,0.7558727787435993
7.771428571428571,0.7878134738710716
7.885714285714285,0.846269942676236
8.0,0.9292248966227773
8.114285714285714,1.0299705625424593
8.228571428571428,1.1387451237281851
8.342857142857143,1.2463842147871864
8.457142857142857,1.3489545421352191
8.571428571428571,1.4502584916688341
8.685714285714285,1.5594369489330204
8.799999999999999,1.6842054182309683
8.914285714285715,1.8239731208093957
9.028571428571428,1.9675755113284976
9.142857142857142,2.096672589331458
9.257142857142856,2.191491974797613
9.371428571428572,2.2350027670425057
9.485714285714286,2.2149554210226166
9.6,2.1259948435338023
9.714285714285714,1.9727842149377686
9.828571428571427,1.771758394797417
9.942857142857143,1.5483951626057206
10.057142857142857,1.3300463226216426
10.17142857142857,1.1380494387733322
10.285714285714285,0.983316923251567
10.4,0.8667744436868763
10.514285714285714,0.7828540102997454
10.628571428571428,0.7232710727302345
10.742857142857142,0.6794871313963649
10.857142857142858,0.6438749510713302
10.971428571428572,0.6103499871302702
11.085714285714285,0.5749832183241691
11.2,0.5364311918721972
11.314285714285713,0.4956270962991497
11.428571428571429,0.45455629773802414
11.542857142857143,0.4148003742385103
11.657142857142857,0.37687302238223036
11.77142857142857,0.34064599016141706
11.885714285714286,0.30613846708979425
12.0,0.2737898725986039
12.114285714285714,0.24411501544045688
12.228571428571428,0.21731906180927896
12.342857142857142,0.19331351316091638
12.457142857142857,0.1720008132949585
12.571428571428571,0.15344136801944114
12.685714285714285,0.13775724617552876
12.799999999999999,0.1249472580671446
12.914285714285715,0.11482773313134878
13.028571428571428,0.10711871756114448
13.142857142857142,0.10153053116804005
13.257142857142856,0.09772868035752384
13.371428571428572,0.09520934724834285
13.485714285714286,0.0932394249531303
13.6,0.09099114296599575
13.714285714285714,0.08784670771949626
13.828571428571427,0.08368503809538327
13.942857142857143,0.0789342756585604
14.057142857142857,0.07432808339202174
14.17142857142857,0.07052361957945567
14.285714285714285,0.06783130592086672
14.4,0.06619667947487708
14.514285714285714,0.06537973698681654
14.628571428571428,0.06516372154744116
14.742857142857142,0.06544684133311336
14.857142857142856,0.06617339298598224
14.971428571428572,0.06717916498586109
15.085714285714285,0.06810262216936008
15.2,0.06848098562897338
15.314285714285713,0.06799475247144121
15.428571428571429,0.06666525103993963
15.542857142857143,0.06482099252082238
15.657142857142857,0.06285150418028855
15.77142857142857,0.060969484916273214
15.885714285714284,0.05919545512392847
16.0,0.0575685789581889
16.114285714285714,0.056377172858700766
16.228571428571428,0.05617856867995593
16.34285714285714,0.0575452935678843
16.457142857142856,0.06068701375364631
16.57142857142857,0.06519765904630093
16.685714285714287,0.07010347846061496
16.8,0.07420084631967863
16.914285714285715,0.0765058904058497
17.02857142857143,0.07659903481470573
17.142857142857142,0.07473263884518214
17.257142857142856,0.07168658215197572
17.37142857142857,0.06844026450361779
17.485714285714284,0.06579323935700282
17.599999999999998,0.06411211099155183
17.714285714285715,0.06333799241959673
17.82857142857143,0.06322359764774173
17.942857142857143,0.0636009646388517
18.057142857142857,0.06447814180893517
18.17142857142857,0.06593095261009438
18.285714285714285,0.06791830425694756
18.4,0.07016319239617497
18.514285714285712,0.07215102672558564
18.628571428571426,0.07323516332863407
18.742857142857144,0.07283679985988954
18.857142857142858,0.07069922458234489
18.97142857142857,0.06707542441095415
19.085714285714285,0.06269833814546046
19.2,0.058499025786799955
19.314285714285713,0.055220899827993275
19.428571428571427,0.05314991810003403
19.54285714285714,0.0520821993526608
19.657142857142855,0.0514972449328733
19.771428571428572,0.050822984885804764
19.885714285714286,0.04967652487013363
20.0,0.04799139585648284
20.114285714285714,0.04598891619700302
20.228571428571428,0.04402779986978243
20.34285714285714,0.04243166732330768
20.457142857142856,0.04138488154444745
20.57142857142857,0.04090877837656921
20.685714285714287,0.040868595644283925
20.8,0.04098181439556919
20.914285714285715,0.0408632380871483
21.02857142857143,0.04015226980961037
21.142857142857142,0.038687874237887464
21.257142857142856,0.036610534204661614
21.37142857142857,0.03429180267335225
21.485714285714284,0.032124295682508644
21.599999999999998,0.030322657461492854
21.714285714285715,0.028870691497118454
21.82857142857143,0.02762189305767617
21.942857142857143,0.026449817505011748
22.057142857142857,0.02534183672796906
22.17142857142857,0.02440187810035398
22.285714285714285,0.02378570198100266
22.4,0.02360441922147289
22.514285714285712,0.023834441356937044
22.628571428571426,0.024285096037927355
22.742857142857144,0.024663061944352364
22.857142857142858,0.024709468362479618
22.97142857142857,0.024319672611614985
23.085714285714285,0.023563888068412427
23.2,0.02261011644833291
23.314285714285713,0.021623916922681292
23.428571428571427,0.02071332177340159
23.54285714285714,0.019926882640092493
23.657142857142855,0.0192730166175679
23.771428571428572,0.01873855689078964
23.885714285714286,0.01830788836316185
24.0,0.017983594371307553
24.114285714285714,0.017793715575844235
24.228571428571428,0.017771831382149907
24.34285714285714,0.01792124480088447
24.457142857142856,0.018195466628232935
24.57142857142857,0.01851633166576311
24.685714285714283,0.01881628134048666
24.8,0.01906889382814221
24.914285714285715,0.01928436011172053
25.02857142857143,0.019477502777421205
25.142857142857142,0.019633351894549185
25.257142857142856,0.019692000006364903
25.37142857142857,0.01956444734726418
25.485714285714284,0.019177986039532663
25.599999999999998,0.01852824742140565
25.71428571428571,0.01770032161040993
25.82857142857143,0.016838707911340397
25.942857142857143,0.016087018096589335
26.057142857142857,0.015540889846146391
26.17142857142857,0.015238909155318111
26.285714285714285,0.015181297497726096
26.4,0.015350263437216067
26.514285714285712,0.015714960974091665
26.628571428571426,0.01622055403473516
26.742857142857144,0.01677250638589967
26.857142857142858,0.01723298853617122
26.97142857142857,0.01744458006889686
27.085714285714285,0.01728147312398085
27.2,0.01670392652672671
27.314285714285713,0.015779480505788566
27.428571428571427,0.014654054144304365
27.54285714285714,0.01349463794344656
27.657142857142855,0.01244343752060697
27.771428571428572,0.011601719956581583
27.885714285714286,0.01102819099212719
28.0,0.010732071857882707
28.114285714285714,0.010666045469709604
28.228571428571428,0.010741158608789624
28.34285714285714,0.010869507357626693
28.457142857142856,0.011009564178071337
28.57142857142857,0.01117906580633609
28.685714285714283,0.011422564013764295
28.8,0.011755243028819893
28.914285714285715,0.012124438137246672
29.02857142857143,0.012420660942670941
29.142857142857142,0.01253490802023481
29.257142857142856,0.012422484364728394
29.37142857142857,0.012126380466761379
29.485714285714284,0.011744653170181436
29.599999999999998,0.011369584497977727
29.71428571428571,0.011043531538247617
29.82857142857143,0.01075610070098972
29.942857142857143,0.010472774944030152
30.057142857142857,0.010166656120641241
30.17142857142857,0.009832266571165104
30.285714285714285,0.009480216942248258
30.4,0.009125145214320502
30.514285714285712,0.00877864074519341
30.628571428571426,0.008449570998708883
30.74285714285714,0.008146822292306424
30.857142857142858,0.00787933868199595
30.97142857142857,0.0076531843993351695
31.085714285714285,0.0074694985251638184
31.2,0.0073269731685456484
31.314285714285713,0.007228186151034174
31.428571428571427,0.007184250224614004
31.54285714285714,0.007211445445038491
31.657142857142855,0.007318997459450707
31.77142857142857,0.0074952631881581135
31.885714285714286,0.007702625138484979
32.0,0.007885674916276642
32.114285714285714,0.007988093921079792
32.22857142857143,0.007969837641521087
32.34285714285714,0.007819620258643648
32.457142857142856,0.007561243571304039
32.57142857142857,0.007250650107630869
32.68571428571428,0.006958763790718526
32.8,0.006741736636151414
32.91428571428571,0.0066129004575175634
33.028571428571425,0.006535951489822148
33.14285714285714,0.006447452276546117
33.25714285714285,0.006295872411654305
33.371428571428574,0.006071837209255166
33.48571428571429,0.005811320209637891
33.6,0.005574281880465289
33.714285714285715,0.005417546824444974
33.82857142857143,0.005378956520018007
33.94285714285714,0.005474408886959187
34.05714285714286,0.005697728356312341
34.17142857142857,0.006016693342764935
34.285714285714285,0.006370465202602733
34.4,0.00667889023394068
34.51428571428571,0.0068662198936417455
34.628571428571426,0.006888582836288617
34.74285714285714,0.006748829031605032
34.857142857142854,0.006489703437566604
34.97142857142857,0.0061707632511537455
35.08571428571428,0.005844193902071171
35.199999999999996,0.005542372306271154
35.31428571428572,0.00527907256291837
35.42857142857143,0.0050568990670825185
35.542857142857144,0.004873065900372439
35.65714285714286,0.004721962309270212
35.77142857142857,0.0045979417438878805
35.885714285714286,0.0045001328036289295
36.0,0.0044356676960062924
36.114285714285714,0.004415921616146484
36.22857142857143,0.004445428752273512
36.34285714285714,0.00451056173985143
36.457142857142856,0.004577443821700709
36.57142857142857,0.00460308629135724
36.68571428571428,0.004554475779965403
36.8,0.0044245045714409155
36.91428571428571,0.00423584169524637
37.028571428571425,0.004032230364448718
37.14285714285714,0.003864079113992087
37.25714285714285,0.003775523014484502
37.371428571428574,0.0037947622674446182
37.48571428571429,0.0039258356814110005
37.6,0.0041426912684055794
37.714285714285715,0.004391474718958585
37.82857142857143,0.004606236085777066
37.94285714285714,0.004734406122426537
38.05714285714286,0.004758665484794767
38.17142857142857,0.004701156584209465
38.285714285714285,0.004606738652139485
38.4,0.00451625557897421
38.51428571428571,0.004447402619075335
38.628571428571426,0.004394519225994834
38.74285714285714,0.004344138738981988
38.857142857142854,0.004291667246038213
38.97142857142857,0.004245493166175293
39.08571428571428,0.004217047155592157
39.199999999999996,0.004207457167129128
39.31428571428571,0.004202811815322187
39.42857142857143,0.004181225024224359
39.542857142857144,0.00412557296534047
39.65714285714286,0.004033586090549469
39.77142857142857,0.0039210174323034645
39.885714285714286,0.0038181445736633927
40.0,0.003761452728457274
40.114285714285714,0.0037821836195718085
40.22857142857143,0.0038940702935968507
40.34285714285714,0.004084200285489486
40.457142857142856,0.004311657524155316
40.57142857142857,0.004517058497663911
40.68571428571428,0.004642250871545721
40.8,0.004653704091755838
40.91428571428571,0.00455782964517907
41.028571428571425,0.004397125679294254
41.14285714285714,0.004226404484018469
41.25714285714285,0.004082969768939676
41.371428571428574,0.003970667294241363
41.48571428571429,0.003867964620264809
41.6,0.003752045202780095
41.714285714285715,0.0036199240073592357
41.82857142857143,0.0034922496461059892
41.94285714285714,0.003399797175270689
42.05714285714286,0.0033639181156529174
42.17142857142857,0.0033834817699784775
42.285714285714285,0.0034348827440348457
42.4,0.003484305284502693
42.51428571428571,0.00350532186785325
42.628571428571426,0.0034914060347050794
42.74285714285714,0.0034552196817614457
42.857142857142854,0.003415823129967166
42.97142857142857,0.0033849217669626144
43.08571428571428,0.003363808108503554
43.199999999999996,0.003351672322502925
43.31428571428571,0.0033540823409771597
43.42857142857143,0.0033805477273802435
43.542857142857144,0.0034325110493532394
43.65714285714286,0.0034944388330786285
43.77142857142857,0.00353849198519786
43.885714285714286,0.0035400557114121755
44.0,0.0034914678630368888
44.114285714285714,0.0034042641799882285
44.22857142857143,0.003301250011040346
44.34285714285714,0.0032066001665066865
44.457142857142856,0.0031397374735204478
44.57142857142857,0.00311243259627256
44.68571428571428,0.0031262851240420296
44.8,0.003170925607221151
44.91428571428571,0.0032265298750242437
45.028571428571425,0.003272157464193593
45.14285714285714,0.0032952973584425885
45.25714285714285,0.003295092272620083
45.37142857142857,0.003276712552517433
45.48571428571429,0.0032427023892787907
45.6,0.0031897302901358502
45.714285714285715,0.003113399899321569
45.82857142857143,0.0030162009706114143
45.94285714285714,0.0029115622323268742
46.05714285714286,0.002820657009258839
46.17142857142857,0.002763688369809357
46.285714285714285,0.0027505723812170134
46.4,0.002776410255304695
46.51428571428571,0.0028246421170203596
46.628571428571426,0.0028759316602213637
46.74285714285714,0.002916634443856589
46.857142857142854,0.0029409707545707043
46.97142857142857,0.0029463450495684496
47.08571428571428,0.0029273886583908275
47.199999999999996,0.0028756418011536694
47.31428571428571,0.0027866746087383113
47.42857142857143,0.0026690323868813494
47.542857142857144,0.0025463041342099523
47.65714285714286,0.0024482514093750645
47.77142857142857,0.0023959783615096503
47.885714285714286,0.002391677179664712
48.0,0.00242021181392691
48.114285714285714,0.002460597767362319
48.22857142857143,0.0024987524322665094
48.34285714285714,0.002534133512826671
48.457142857142856,0.0025801927732854203
48.57142857142857,0.00266804790325413
48.68571428571428,0.002876205759911858
48.8,0.0034331696361757473
48.91428571428571,0.004969106549373753
49.028571428571425,0.008979541393934944
49.14285714285714,0.018404702958953488
49.25714285714285,0.03785130427941185
49.37142857142857,0.07258496069070615
49.48571428571429,0.12561795940256545
49.6,0.19360130221956653
49.714285714285715,0.26426909318927905
49.82857142857143,0.31876758391865756
49.94285714285714,0.33946054267470727
50.05714285714286,0.3190690246542163
50.17142857142857,0.2647690773671273
50.285714285714285,0.19414071047041015
50.4,0.12604802275938035
50.51428571428571,0.07281932478610662
50.628571428571426,0.037882728288620424
50.74285714285714,0.018286857692890176
50.857142857142854,0.008789583592526878
50.97142857142857,0.0047710073365865285
51.08571428571428,0.0032572292116827013
51.199999999999996,0.002720323801441026
51.31428571428571,0.0025150654253776475
51.42857142857142,0.002418303705206
51.542857142857144,0.0023683450686729428
51.65714285714286,0.002349459804593832
51.77142857142857,0.002353799086654723
51.885714285714286,0.0023768281997491765
52.0,0.0024210458354313397
52.114285714285714,0.0024949254077495653
52.22857142857143,0.002604684315280206
52.34285714285714,0.0027447034739866635
52.457142857142856,0.0028944008390464826
52.57142857142857,0.003024346550579414
52.68571428571428,0.0031070544058272183
52.8,0.0031251227375310685
52.91428571428571,0.0030735527159448887
53.028571428571425,0.0029588876148000623
53.14285714285714,0.0027986121214789513
53.25714285714285,0.002620188979948034
53.37142857142857,0.0024563624544481797
53.48571428571429,0.002335699035412803
53.6,0.002272062574824301
53.714285714285715,0.00225899824382441
53.82857142857143,0.0022729920997187967
53.94285714285714,0.002284708453252941
54.05714285714286,0.00227240359561001
54.17142857142857,0.0022299729044661246
54.285714285714285,0.0021654525380649606
54.4,0.0020924083602912443
54.51428571428571,0.002021235029193039
54.628571428571426,0.001956082182177929
54.74285714285714,0.0018975806328549853
54.857142857142854,0.0018471494499513218
54.97142857142857,0.0018088317079172705
55.08571428571428,0.0017878653433800852
