Frequency,PSD
6.057142857142857,0.058987841468512006
6.171428571428571,0.05896102115216174
6.285714285714286,0.05897783431700578
6.3999999999999995,0.059120168019358904
6.514285714285714,0.05941629392560512
6.628571428571428,0.059826660086411895
6.742857142857143,0.06028682012826804
6.857142857142857,0.060755926202823496
6.9714285714285715,0.06121272168546765
7.085714285714285,0.06159638558393482
7.2,0.0617528408294419
7.314285714285714,0.06145234646308207
7.428571428571428,0.06048338335971269
7.542857142857143,0.05876019925411157
7.657142857142857,0.05637108934484608
7.771428571428571,0.05354653865053867
7.885714285714285,0.050587163222347915
8.0,0.04780654289454785
8.114285714285714,0.04550937864420856
8.228571428571428,0.043983212692466106
8.342857142857143,0.04347257242353203
8.457142857142857,0.044126925827219186
8.571428571428571,0.04593713224316478
8.685714285714285,0.04868113982414546
8.799999999999999,0.051900852182360596
8.914285714285715,0.054940380991363134
9.028571428571428,0.057073519301088727
9.142857142857142,0.057709502135456704
9.257142857142856,0.056604031241560854
9.371428571428572,0.053970547715660164
9.485714285714286,0.050423636581071754
9.6,0.046771752583337003
9.714285714285714,0.0437502768782313
9.828571428571427,0.04180536810190736
9.942857142857143,0.0410056753747127
10.057142857142857,0.041099650774886
10.17142857142857,0.041676734260586684
10.285714285714285,0.04235159995599435
10.4,0.042890099522956276
10.514285714285714,0.04323690491789391
10.628571428571428,0.043463022047371236
10.742857142857142,0.04368670433924719
10.857142857142858,0.04401466697014064
10.971428571428572,0.04451866177475727
11.085714285714285,0.04523602769748607
11.2,0.04617576090285638
11.314285714285713,0.04731731407256051
11.428571428571429,0.04859824948065761
11.542857142857143,0.04989674494066259
11.657142857142857,0.05102396945202084
11.77142857142857,0.05174296182621495
11.885714285714286,0.05182084219851169
12.0,0.05110495629291163
12.114285714285714,0.049599002400979475
12.228571428571428,0.047506326577706245
12.342857142857142,0.04520845530474677
12.457142857142857,0.04316633267694679
12.571428571428571,0.041771957819487095
12.685714285714285,0.04121895705507628
12.799999999999999,0.041465858931899545
12.914285714285715,0.04231613580169134
13.028571428571428,0.043560049148220426
13.142857142857142,0.045075071122658725
13.257142857142856,0.046810055253151225
13.371428571428572,0.04866918779897085
13.485714285714286,0.050395393125984025
13.6,0.051562396594401816
13.714285714285714,0.051713081491296164
13.828571428571427,0.050582612937060345
13.942857142857143,0.04828338777877721
14.057142857142857,0.04533851049501083
14.17142857142857,0.04252370079476617
14.285714285714285,0.04057743187227625
14.4,0.039913963215927016
14.514285714285714,0.04047969611220944
14.628571428571428,0.041821998945353614
14.742857142857142,0.0433296437166915
14.857142857142856,0.04451680111241456
14.971428571428572,0.045205166580170625
15.085714285714285,0.04551943750253731
15.2,0.04571738766114179
15.314285714285713,0.045968792089080564
15.428571428571429,0.04622192892112951
15.542857142857143,0.046234326490315274
15.657142857142857,0.045734416142461334
15.77142857142857,0.04459829568228027
15.885714285714284,0.042928697574172205
16.0,0.04100351059874592
16.114285714285714,0.03915077584496409
16.228571428571428,0.03763773653671233
16.34285714285714,0.03662285993189737
16.457142857142856,0.0361596621612645
16.57142857142857,0.036213717418159215
16.685714285714287,0.036671321822492935
16.8,0.03734941228872533
16.914285714285715,0.03802680702986437
17.02857142857143,0.03850029269014882
17.142857142857142,0.03864572601628358
17.257142857142856,0.03845563828804529
17.37142857142857,0.038035265839011435
17.485714285714284,0.03755864504583523
17.599999999999998,0.03720400715434792
17.714285714285715,0.03709665061135056
17.82857142857143,0.03728427374691457
17.942857142857143,0.037752973640119834
18.057142857142857,0.038466963828430026
18.17142857142857,0.039397028946114396
18.285714285714285,0.04050959448000045
18.4,0.041721633935045216
18.514285714285712,0.042862312126126546
18.628571428571426,0.04368749313165039
18.742857142857144,0.04395864926537044
18.857142857142858,0.04354952591355801
18.97142857142857,0.04252033696936357
19.085714285714285,0.04111585032354487
19.2,0.03968418644982792
19.314285714285713,0.03855037709004087
19.428571428571427,0.0378977013342893
19.54285714285714,0.03770886598901474
19.657142857142855,0.037798045229178984
19.771428571428572,0.03792399814602059
19.885714285714286,0.03792766808189024
20.0,0.037815188983920944
20.114285714285714,0.03773438549009539
20.228571428571428,0.03786112512967733
20.34285714285714,0.038275341350786286
20.457142857142856,0.038913867312865495
20.57142857142857,0.039626123866748915
20.685714285714287,0.04027476133726819
20.8,0.040789101684012175
20.914285714285715,0.04112983547908619
21.02857142857143,0.04121583821720586
21.142857142857142,0.04090916049249935
21.257142857142856,0.04010280325785986
21.37142857142857,0.038852173304910774
21.485714285714284,0.0374341252549588
21.599999999999998,0.036264009982906624
21.714285714285715,0.0357107137389437
21.82857142857143,0.03592650614481995
21.942857142857143,0.036792633637565006
22.057142857142857,0.037996360411688135
22.17142857142857,0.03917402508140776
22.285714285714285,0.04003295341811528
22.4,0.040402899569601844
22.514285714285712,0.04022480339582608
22.628571428571426,0.039519024650785065
22.742857142857144,0.038370313280989166
22.857142857142858,0.03693458124148505
22.97142857142857,0.03544083739939692
23.085714285714285,0.0341566766648541
23.2,0.03331452207533611
23.314285714285713,0.0330359561490795
23.428571428571427,0.03330413067078598
23.54285714285714,0.03400115401900108
23.657142857142855,0.03497617193741249
23.771428571428572,0.036090772687589395
23.885714285714286,0.03721977142909039
24.0,0.03823220185328613
24.114285714285714,0.03899087895194052
24.228571428571428,0.03938136979192934
24.34285714285714,0.03934857630232131
24.457142857142856,0.03891463392485097
24.57142857142857,0.038171593930620334
24.685714285714283,0.037260178691368134
24.8,0.036347364232587026
24.914285714285715,0.0356067455039523
25.02857142857143,0.03519744283688658
25.142857142857142,0.03523542526175619
25.257142857142856,0.03575854866014969
25.37142857142857,0.036701145081050546
25.485714285714284,0.03790185200133847
25.599999999999998,0.039154029517593406
25.71428571428571,0.04027694912678442
25.82857142857143,0.041166360639371576
25.942857142857143,0.04179711689095332
26.057142857142857,0.042187614509875744
26.17142857142857,0.04236251765228683
26.285714285714285,0.04234377384970735
26.4,0.04216765417296214
26.514285714285712,0.041896351126007716
26.628571428571426,0.04159343945855629
26.742857142857144,0.041266668496589276
26.857142857142858,0.040822510364725506
26.97142857142857,0.040085782460840415
27.085714285714285,0.03889768989124923
27.2,0.0372424416838678
27.314285714285713,0.035316855548013046
27.428571428571427,0.03348278261473322
27.54285714285714,0.032116418215811404
27.657142857142855,0.0314404247824132
27.771428571428572,0.03144087674241516
27.885714285714286,0.031916044425287546
28.0,0.03261562065511487
28.114285714285714,0.033372055979468185
28.228571428571428,0.03414205998609873
28.34285714285714,0.034950676760873316
28.457142857142856,0.03580209037300609
28.57142857142857,0.036634253837367375
28.685714285714283,0.03734353910052533
28.8,0.037841094402342706
28.914285714285715,0.03808401705815327
29.02857142857143,0.03806385308374139
29.142857142857142,0.03778584820345442
29.257142857142856,0.03727930798686349
29.37142857142857,0.03663659222722891
29.485714285714284,0.03603408936459268
29.599999999999998,0.03569259056620487
29.71428571428571,0.03578559292745034
29.82857142857143,0.03635292989121029
29.942857142857143,0.03727773432339925
30.057142857142857,0.03833894723820117
30.17142857142857,0.03930225681245524
30.285714285714285,0.03999743578106946
30.4,0.04035045525194508
30.514285714285712,0.04036968216925446
30.628571428571426,0.04010658370657131
30.74285714285714,0.03961796421025207
30.857142857142858,0.03895045143962397
30.97142857142857,0.038150928516968705
31.085714285714285,0.03728660886606745
31.2,0.0364494467129908
31.314285714285713,0.03573098159922183
31.428571428571427,0.03517927143306562
31.54285714285714,0.03476904513898791
31.657142857142855,0.03441128714469319
31.77142857142857,0.03400086208900267
31.885714285714286,0.03347376952886293
32.0,0.0328422260322943
32.114285714285714,0.032194933992614146
32.22857142857143,0.03166967880295547
32.34285714285714,0.031410246541464674
32.457142857142856,0.031516342995885724
32.57142857142857,0.031998134994327604
32.68571428571428,0.032755747581226693
32.8,0.03360327530639873
32.91428571428571,0.03433669921005866
33.028571428571425,0.03481513430881221
33.14285714285714,0.035008399689264
33.25714285714285,0.03497947881963498
33.371428571428574,0.034813757709325724
33.48571428571429,0.034547664202814216
33.6,0.0341520664677864
33.714285714285715,0.03358367781391712
33.82857142857143,0.03286416695892552
33.94285714285714,0.03212579613855466
34.05714285714286,0.031587193999724546
34.17142857142857,0.03146797720854517
34.285714285714285,0.031884114451074475
34.4,0.032775351365122204
34.51428571428571,0.0339050430114186
34.628571428571426,0.03494373518314425
34.74285714285714,0.03560583770070595
34.857142857142854,0.03577434739986814
34.97142857142857,0.03554841297827967
35.08571428571428,0.03518732919784541
35.199999999999996,0.034977297723787715
35.31428571428572,0.03508372746192679
35.42857142857143,0.035459399435586104
35.542857142857144,0.03585792470259178
35.65714285714286,0.03595472873153749
35.77142857142857,0.035517604911365644
35.885714285714286,0.03453179720751189
36.0,0.033207065696094065
36.114285714285714,0.03186985006428339
36.22857142857143,0.030816252684031847
36.34285714285714,0.030214732353426227
36.457142857142856,0.030097991061091962
36.57142857142857,0.030418930407014978
36.68571428571428,0.031113769138028862
36.8,0.03212751270687436
36.91428571428571,0.033393164729730376
37.028571428571425,0.03479112044286982
37.14285714285714,0.03613107602704084
37.25714285714285,0.0371865592637634
37.371428571428574,0.03777727880058763
37.48571428571429,0.03785909918079924
37.6,0.03757011855625704
37.714285714285715,0.03720032947560674
37.82857142857143,0.0370870840729957
37.94285714285714,0.03747074350602461
38.05714285714286,0.03836596198195561
38.17142857142857,0.03951021004153803
38.285714285714285,0.04043287212218437
38.4,0.04063767663817456
38.51428571428571,0.03982453692939977
38.628571428571426,0.038038979244345086
38.74285714285714,0.03566691192801946
38.857142857142854,0.03327815290960307
38.97142857142857,0.031404015534530025
39.08571428571428,0.030357176719337884
39.199999999999996,0.030162438566566058
39.31428571428571,0.030604381931316173
39.42857142857143,0.03135061832209294
39.542857142857144,0.032089054758782334
39.65714285714286,0.03262070644127303
39.77142857142857,0.032874827669534555
39.885714285714286,0.03285707421353939
40.0,0.03258342325426474
40.114285714285714,0.03205989687151598
40.22857142857143,0.03132690546660987
40.34285714285714,0.030525916350249614
40.457142857142856,0.02991769264393301
40.57142857142857,0.02981264819121088
40.68571428571428,0.0304391934012745
40.8,0.03182237008428869
40.91428571428571,0.03374125702285398
41.028571428571425,0.03578971349388108
41.14285714285714,0.03751293936723386
41.25714285714285,0.038558984130598745
41.371428571428574,0.03878210615590952
41.48571428571429,0.038262313186115726
41.6,0.037247164551187276
41.714285714285715,0.03605388738358435
41.82857142857143,0.03497506251950247
41.94285714285714,0.034213413992804656
42.05714285714286,0.033850451131784635
42.17142857142857,0.0338459608590152
42.285714285714285,0.034068599932597095
42.4,0.034357059866459115
42.51428571428571,0.034596978258559036
42.628571428571426,0.03477985053925609
42.74285714285714,0.035007400837039966
42.857142857142854,0.03543013877257173
42.97142857142857,0.03615042496268588
43.08571428571428,0.03714867128606411
43.199999999999996,0.03828140616799356
43.31428571428571,0.03935343519727792
43.42857142857143,0.04021461171210012
43.542857142857144,0.0408146256911052
43.65714285714286,0.041182252760265
43.77142857142857,0.041353784157481914
43.885714285714286,0.041312255306309845
44.0,0.040985889620339735
44.114285714285714,0.04030464373559582
44.22857142857143,0.03927062074464166
44.34285714285714,0.03799440233884449
44.457142857142856,0.036680737369512745
44.57142857142857,0.03558044668268995
44.68571428571428,0.03493330580818057
44.8,0.03491237677421933
44.91428571428571,0.03556993634905202
45.028571428571425,0.03679571100430664
45.14285714285714,0.03831590929035042
45.25714285714285,0.039757033379835445
45.37142857142857,0.04076286737718851
45.48571428571429,0.041113509338675046
45.6,0.04078783596502724
45.714285714285715,0.03994250254233501
45.82857142857143,0.038825892424823226
45.94285714285714,0.037674698170674654
46.05714285714286,0.03664241094605747
46.17142857142857,0.035786850264617295
46.285714285714285,0.035109554482677066
46.4,0.03461169332560636
46.51428571428571,0.034327235852753296
46.628571428571426,0.03431547139347523
46.74285714285714,0.03462195918912424
46.857142857142854,0.03523004887890899
46.97142857142857,0.03602471007442488
47.08571428571428,0.036788637631900246
47.199999999999996,0.03724833215519306
47.31428571428571,0.03717210959980737
47.42857142857143,0.03648871179975703
47.542857142857144,0.03536537379165243
47.65714285714286,0.03418839840275352
47.77142857142857,0.033435698046297695
47.885714285714286,0.0334928003741061
48.0,0.03450021441156221
48.114285714285714,0.03630641061000929
48.22857142857143,0.03854501883601849
48.34285714285714,0.04079022493576391
48.457142857142856,0.04270819530069574
48.57142857142857,0.044134665753497226
48.68571428571428,0.04505980588961809
48.8,0.04555840669655237
48.91428571428571,0.04573359624334784
49.028571428571425,0.04573158953328384
49.14285714285714,0.04583735138166191
49.25714285714285,0.04659002607124213
49.37142857142857,0.0487911426425819
49.48571428571429,0.053273189876630864
49.6,0.06041043132526135
49.714285714285715,0.06957594524837846
49.82857142857143,0.07893295363516631
49.94285714285714,0.0858810414431746
50.05714285714286,0.08809094497785419
50.17142857142857,0.08459548359606052
50.285714285714285,0.07626666829418749
50.4,0.06538090291675161
50.51428571428571,0.05457764232031416
50.628571428571426,0.04585751188213073
50.74285714285714,0.0401114292062965
50.857142857142854,0.03723650442157895
50.97142857142857,0.036562853604454895
51.08571428571428,0.03727469138878288
51.199999999999996,0.03866435692286703
51.31428571428571,0.04021948345675974
51.42857142857142,0.041611812891186456
51.542857142857144,0.04264840436434955
51.65714285714286,0.04321916531986964
51.77142857142857,0.04325955895847839
51.885714285714286,0.04273981979595541
52.0,0.04167915939085196
52.114285714285714,0.0401665672491668
52.22857142857143,0.03836307101796968
52.34285714285714,0.03647250865194408
52.457142857142856,0.034690510958000936
52.57142857142857,0.033156621491079764
52.68571428571428,0.03193227365082623
52.8,0.031012407546113403
52.91428571428571,0.030361854694780963
53.028571428571425,0.02995626654716041
53.14285714285714,0.02980400770504791
53.25714285714285,0.029933300087409326
53.37142857142857,0.03034965900679507
53.48571428571429,0.030993505949351557
53.6,0.03173643514911649
53.714285714285715,0.032431437188792475
53.82857142857143,0.03298780598302725
53.94285714285714,0.033411793428304415
54.05714285714286,0.03377193617369531
54.17142857142857,0.0341073800454801
54.285714285714285,0.03435100207270615
54.4,0.034336713220508755
54.51428571428571,0.03389737118454842
54.628571428571426,0.03298662233640163
54.74285714285714,0.03173764456064473
54.857142857142854,0.030421572461315764
54.97142857142857,0.029342650203314398
55.08571428571428,0.02874047483890787
