Frequency,PSD
6.0,0.5654011742214253
6.08,0.5655888222245786
6.16,0.5659634282570531
6.24,0.56652361454194
6.32,0.5672673198356162
6.4,0.5681918059193865
6.48,0.5692936662308463
6.5600000000000005,0.5705688366140909
6.640000000000001,0.5720126081624611
6.72,0.5736196421219851
6.8,0.5753839868179612
6.88,0.577299096561299
6.96,0.5793578524852137
7.04,0.5815525852567214
7.12,0.5838750996010488
7.2,0.5863167005706311
7.28,0.5888682214837891
7.36,0.591520053451518
7.44,0.5942621764040936
7.5200000000000005,0.5970841915224655
7.6000000000000005,0.5999753549726954
7.68,0.6029246128350705
7.76,0.6059206371130266
7.84,0.6089518627007331
7.92,0.6120065251821536
8.0,0.6150726993287163
8.08,0.6181383381574227
8.16,0.6211913124064173
8.24,0.6242194502807544
8.32,0.6272105773174383
8.4,0.6301525562158239
8.48,0.6330333264772064
8.56,0.6358409436959922
8.64,0.638563618344209
8.72,0.6411897538914253
8.8,0.6437079841033423
8.88,0.6461072093645047
8.96,0.6483766318737127
9.040000000000001,0.6505057895648603
9.120000000000001,0.6524845886110324
9.200000000000001,0.6543033343757902
9.28,0.6559527606826049
9.36,0.6574240572813678
9.44,0.6587088953997251
9.52,0.6597994512766452
9.6,0.660688427586029
9.68,0.661369072669262
9.76,0.6618351975073122
9.84,0.6620811903751656
9.92,0.6621020291340338
10.0,0.6618932911297037
10.08,0.66145116067856
10.16,0.6607724341360638
10.24,0.6598545225557456
10.32,0.6586954519599036
10.4,0.6572938612561257
10.48,0.6556489978463502
10.56,0.6537607109873453
10.64,0.6516294429731151
10.72,0.6492562182207683
10.8,0.6466426303516819
10.88,0.6437908273693281
10.96,0.640703495043803
11.040000000000001,0.6373838386208651
11.120000000000001,0.6338355629801052
11.200000000000001,0.6300628513726697
11.28,0.6260703428737652
11.36,0.6218631086889125
11.44,0.6174466274556191
11.52,0.6128267596838095
11.6,0.6080097214789805
11.68,0.6030020576916807
11.76,0.597810614635582
11.84,0.592442512514139
11.92,0.5869051176926955
12.0,0.5812060149489274
12.08,0.5753529798298008
12.16,0.5693539512377942
12.24,0.5632170043631092
12.32,0.5569503240720096
12.4,0.5505621788543733
12.48,0.5440608954260917
12.56,0.5374548340741946
12.64,0.5307523648245617
12.72,0.5239618445039169
12.8,0.5170915947595294
12.88,0.5101498810917511
12.96,0.5031448929462708
13.040000000000001,0.49608472490480554
13.120000000000001,0.48897735900495876
13.200000000000001,0.4818306482121857
13.280000000000001,0.4746523010592839
13.36,0.46744986746158207
13.44,0.4602307257091223
13.52,0.4530020706305893
13.6,0.4457709029176082
13.68,0.43854401959231454
13.76,0.43132800559580625
13.84,0.4241292264702445
13.92,0.4169538221029754
14.0,0.4098077014971107
14.08,0.40269653852952014
14.16,0.39562576865416876
14.24,0.3886005865061537
14.32,0.3816259443596588
14.4,0.37470655139134657
14.48,0.36784687369941216
14.56,0.36105113502765507
14.64,0.35432331814341644
14.72,0.3476671668181207
14.8,0.34108618835937954
14.88,0.3345836566441904
14.96,0.3281626156036288
15.040000000000001,0.3218258831106109
15.120000000000001,0.31557605522373355
15.200000000000001,0.30941551074189455
15.280000000000001,0.30334641602629786
15.36,0.29737073004857
15.44,0.29149020962599514
15.52,0.2857064148073255
15.6,0.2800207143751888
15.68,0.27443429143379056
15.76,0.26894814905335873
15.84,0.26356311594558157
15.92,0.25827985214711857
16.0,0.25309885469109916
16.080000000000002,0.2480204632493292
16.16,0.24304486573068546
16.240000000000002,0.2381721038238766
16.32,0.23340207847532948
16.4,0.22873455529545395
16.48,0.22416916988886865
16.56,0.21970543310636068
16.64,0.2153427362183616
16.72,0.21108035601153635
16.8,0.20691745981170628
16.88,0.20285311043771564
16.96,0.19888627109203336
17.04,0.19501581019481715
17.12,0.19124050616887345
17.2,0.18755905218341848
17.28,0.18397006086476791
17.36,0.18047206898208823
17.44,0.1770635421161126
17.52,0.17374287931828003
17.6,0.1705084177671111
17.68,0.16735843742779824
17.76,0.1642911657199715
17.84,0.1613047821974557
17.92,0.15839742324251863
18.0,0.15556718677572243
18.080000000000002,0.1528121369809898
18.16,0.15013030904394495
18.240000000000002,0.14751971390000118
18.32,0.14497834298706072
18.400000000000002,0.14250417299611678
18.48,0.1400951706114825
18.56,0.13774929723090723
18.64,0.13546451365443252
18.72,0.13323878472955708
18.8,0.1310700839391211
18.88,0.12895639791731614
18.96,0.12689573087836942
19.04,0.12488610894179786
19.12,0.1229255843376359
19.2,0.121012239474765
19.28,0.11914419085539368
19.36,0.11731959281886618
19.44,0.11553664109830347
19.52,0.11379357617413384
19.6,0.11208868640928629
19.68,0.11042031095176502
19.76,0.10878684239141408
19.84,0.10718672915896688
19.92,0.1056184776568875
20.0,0.10408065411308641
20.080000000000002,0.10257188615025475
20.16,0.10109086406535356
20.240000000000002,0.09963634181563147
20.32,0.09820713770946919
20.400000000000002,0.09680213480227316
20.48,0.09542028099961289
20.56,0.0940605888717281
20.64,0.09272213518545461
20.72,0.09140406016147115
20.8,0.09010556646656756
20.88,0.08882591795232955
20.96,0.08756443815323656
21.04,0.08632050855862883
21.12,0.08509356667434712
21.2,0.08388310389102999
21.28,0.08268866317708436
21.36,0.08150983661520741
21.44,0.08034626280203574
21.52,0.07919762413101057
21.6,0.07806364397889066
21.68,0.07694408381651108
21.76,0.07583874026437565
21.84,0.07474744211349636
21.92,0.07367004733154492
22.0,0.07260644007389182
22.080000000000002,0.07155652771846004
22.16,0.07052023794254125
22.240000000000002,0.06949751585881236
22.32,0.06848832122678138
22.400000000000002,0.06749262575475976
22.48,0.0665104105062685
22.56,0.0655416634234962
22.64,0.06458637697910263
22.72,0.06364454596627728
22.8,0.06271616543556247
22.88,0.06180122878551764
22.96,0.06089972601288998
23.04,0.060011642126528195
23.12,0.059136955727897386
23.2,0.05827563775968564
23.28,0.05742765042268242
23.36,0.05659294625985447
23.44,0.0557714674053384
23.52,0.05496314499494978
23.6,0.05416789873375307
23.68,0.053385636615271265
23.76,0.05261625478602604
23.84,0.051859637548311244
23.92,0.05111565749339532
24.0,0.050384175756745433
24.080000000000002,0.049665042386342624
24.16,0.04895809681474613
24.240000000000002,0.04826316842522241
24.32,0.04758007720202832
24.400000000000002,0.046908634454771524
24.48,0.04624864360671454
24.560000000000002,0.045599901036894264
24.64,0.04496219696602074
24.72,0.044335316376278244
24.8,0.043719039955380304
24.88,0.04311314505551993
24.96,0.042517406658202445
25.04,0.04193159833634379
25.12,0.0413554932054641
25.2,0.04078886485628304
25.28,0.040231488261548355
25.36,0.03968314065046629
25.44,0.03914360234468278
25.52,0.03861265755033722
25.6,0.03809009510133095
25.68,0.037575709149541836
25.76,0.0370692997983423
25.84,0.03657067367638084
25.92,0.0360796444491983
26.0,0.03559603326683918
26.080000000000002,0.03511966914620546
26.16,0.03465038928746193
26.240000000000002,0.03418803932434788
26.32,0.033732473508768436
26.400000000000002,0.033283554830538555
26.48,0.032841155073610497
26.560000000000002,0.03240515481056236
26.64,0.031975443337515924
26.72,0.031551918552031176
26.8,0.031134486776853574
26.88,0.030723062532686706
26.96,0.030317568263429163
27.04,0.029917934017531043
27.12,0.029524097089318753
27.2,0.029136001624279324
27.28,0.0287535981924149
27.36,0.028376843333851508
27.44,0.028005699080927187
27.52,0.027640132460998824
27.6,0.027280114984176623
27.68,0.026925622120147638
27.76,0.0265766327681637
27.84,0.026233128724161
27.92,0.025895094148843202
28.0,0.02556251504040817
28.080000000000002,0.025235378715414793
28.16,0.024913673301102567
28.240000000000002,0.024597387242255908
28.32,0.02428650882549497
28.400000000000002,0.023981025723631484
28.48,0.023680924562499865
28.560000000000002,0.023386190512415073
28.64,0.023096806906172662
28.72,0.022812754885247484
28.8,0.022534013075603005
28.88,0.02226055729427727
28.96,0.021992360287667538
29.04,0.021729391502205517
29.12,0.02147161688788748
29.2,0.021218998734903016
29.28,0.020971495543402923
29.36,0.020729061926254077
29.44,0.02049164854443787
29.52,0.020259202074587923
29.6,0.020031665207999667
29.68,0.019808976680302622
29.76,0.01959107133085974
29.84,0.019377880190832968
29.92,0.01916933059876587
30.0,0.018965346342425745
30.080000000000002,0.018765847825589172
30.16,0.018570752258375286
30.240000000000002,0.018379973869683645
30.32,0.01819342414025291
30.400000000000002,0.018011012054816707
30.48,0.017832644371814196
30.560000000000002,0.017658225909100603
30.64,0.017487659844081675
30.72,0.0173208480267182
30.8,0.01715769130382478
30.88,0.016998089853120377
30.96,0.01684194352548888
31.04,0.016689152193930138
31.12,0.01653961610770345
31.2,0.016393236250189028
31.28,0.016249914699011766
31.36,0.016109554987007266
31.44,0.015972062462623456
31.52,0.015837344648388554
31.6,0.015705311596090017
31.68,0.015575876237340656
31.76,0.015448954728226983
31.84,0.015324466786753688
31.92,0.015202336021821108
32.0,0.015082490252481548
32.08,0.014964861816243628
32.160000000000004,0.014849387865194026
32.24,0.01473601064872288
32.32,0.014624677781639821
32.4,0.014515342496474877
32.480000000000004,0.014407963878755613
32.56,0.014302507084053818
32.64,0.014198943535589379
32.72,0.014097251101175467
32.8,0.013997414248287387
32.88,0.013899424176018504
32.96,0.013803278922700625
33.04,0.013708983447939777
33.12,0.01361654968783161
33.2,0.013525996582108084
33.28,0.013437350071978348
33.36,0.013350643067425887
33.44,0.013265915382747425
33.52,0.013183213639128869
33.6,0.013102591133092806
33.68,0.013024107669684384
33.76,0.012947829359319249
33.84,0.01287382837727414
33.92,0.012802182684889364
34.0,0.012732975711636021
34.08,0.012666295997319396
34.160000000000004,0.012602236793820977
34.24,0.012540895625926154
34.32,0.012482373810961242
34.4,0.012426775937155046
34.480000000000004,0.01237420930085221
34.56,0.012324783302949224
34.64,0.012278608805178642
34.72,0.012235797447155146
34.800000000000004,0.012196460925399178
34.88,0.012160710235881476
34.96,0.012128654881977674
35.04,0.012100402050086018
35.12,0.012076055755537564
35.2,0.012055715961825707
35.28,0.012039477676578113
35.36,0.012027430028107163
35.44,0.012019655326779868
35.52,0.012016228115863045
35.6,0.012017214216894348
35.68,0.012022669775023356
35.76,0.012032640310138329
35.84,0.012047159779939899
35.92,0.012066249661448402
36.0,0.012089918057716227
36.08,0.012118158836756774
36.160000000000004,0.012150950809910993
36.24,0.012188256957009343
36.32,0.01223002370578893
36.4,0.012276180273043221
36.480000000000004,0.012326638074950921
36.56,0.012381290213920003
36.64,0.012440011049098696
36.72,0.012502655857442972
36.800000000000004,0.012569060591897099
36.88,0.012639041742818881
36.96,0.012712396308285422
37.04,0.012788901878332771
37.12,0.01286831683753511
37.2,0.012950380689586156
37.28,0.013034814506757982
37.36,0.013121321506234606
37.44,0.013209587754399559
37.52,0.013299282999173854
37.6,0.013390061629480733
37.68,0.013481563759855361
37.76,0.013573416437135964
37.84,0.013665234965071878
37.92,0.013756624341590078
38.0,0.013847180802358278
38.08,0.013936493463222333
38.160000000000004,0.014024146053043113
38.24,0.014109718727471729
38.32,0.014192789953256277
38.4,0.014272938451807582
38.480000000000004,0.014349745189956178
38.56,0.014422795405138978
38.64,0.01449168065164915
38.72,0.014556000854100104
38.800000000000004,0.014615366353879082
38.88,0.014669399934122869
38.96,0.014717738808633935
39.04,0.014760036560170636
39.12,0.01479596501370634
39.2,0.01482521603054286
39.28,0.014847503209599528
39.36,0.014862563482761154
39.44,0.014870158591872937
39.52,0.014870076435788552
39.6,0.014862132276826603
39.68,0.014846169797037963
39.76,0.014822061995843492
39.84,0.014789711921844754
39.92,0.014749053232924941
40.0,0.014700050580143707
40.08,0.014642699812357336
40.160000000000004,0.014577027999963493
40.24,0.014503093277650482
40.32,0.014420984507521615
40.4,0.01433082076543228
40.480000000000004,0.01423275065483813
40.56,0.01412695145383299
40.64,0.014013628102428023
40.72,0.013893012038368761
40.800000000000004,0.013765359890997166
40.88,0.01363095204374292
40.96,0.013490091076819644
41.04,0.013343100102558948
41.12,0.013190321006567772
41.2,0.01303211260849053
41.28,0.012868848756639285
41.36,0.012700916371079129
41.44,0.01252871344995245
41.52,0.012352647053867436
41.6,0.012173131283090138
41.68,0.011990585262044266
41.76,0.011805431145266047
41.84,0.011618092158469283
41.92,0.011428990687775697
42.0,0.011238546429440839
42.08,0.0110471746115972
42.160000000000004,0.010855284298622276
42.24,0.01066327678775994
42.32,0.010471544106569253
42.4,0.010280467618669388
42.480000000000004,0.010090416744103475
42.56,0.009901747799471054
42.64,0.009714802961783647
42.72,0.009529909358809461
42.800000000000004,0.009347378287485959
42.88,0.009167504560816608
42.96,0.008990565982535812
43.04,0.008816822947742796
43.12,0.008646518166659876
43.2,0.008479876507706237
43.28,0.008317104955164216
43.36,0.008158392675889576
43.44,0.008003911188768286
43.52,0.007853814629956756
43.6,0.00770824010637698
43.68,0.007567308129450166
43.76,0.007431123120673596
43.84,0.0072997739803514795
43.92,0.007173334710592737
44.0,0.007051865083587301
44.08,0.0069354113461555025
44.160000000000004,0.006824006951644127
44.24,0.006717673310392474
44.32,0.006616420550237031
44.4,0.0065202482788279635
44.480000000000004,0.00642914633991608
44.56,0.006343095556204962
44.64,0.006262068451872074
44.72,0.0061860299484003435
44.800000000000004,0.006114938027966211
44.88,0.006048744359253748
44.96,0.005987394881218841
45.04,0.005930830341024512
45.12,0.005878986783046701
45.2,0.0058317959865716775
45.28,0.00578918585050687
45.36,0.005751080724135686
45.44,0.005717401683638856
45.52,0.005688066754785713
45.6,0.005662991082853166
45.68,0.005642087051461403
45.76,0.005625264352609356
45.84,0.00561243001075646
45.92,0.005603488364314263
46.0,0.005598341008382912
46.08,0.005596886702997524
46.160000000000004,0.005599021251516505
46.24,0.00560463735410929
46.32,0.0056136244415561955
46.4,0.005625868494783248
46.480000000000004,0.005641251855694196
46.56,0.005659653034949634
46.64,0.0056809465223596825
46.72,0.005705002605529714
46.800000000000004,0.005731687202285406
46.88,0.005760861712262814
46.96,0.005792382892819397
47.04,0.005826102764164252
47.12,0.00586186854827541
47.2,0.00589952264580338
47.28,0.005938902654740834
47.36,0.005979841434176434
47.44,0.0060221672159543015
47.52,0.006065703766525137
47.6,0.0061102706007210884
47.68,0.006155683248594782
47.76,0.0062017535758739605
47.84,0.006248290157962761
47.92,0.006295098706814561
48.0,0.0063419825493796385
48.08,0.006388743155730358
48.160000000000004,0.006435180714370603
48.24,0.0064810947516712875
48.32,0.0065262847918175215
48.4,0.006570551053153642
48.480000000000004,0.006613695176325134
48.56,0.006655520979197017
48.64,0.006695835233133281
48.72,0.006734448454902946
48.800000000000004,0.006771175708197453
48.88,0.00680583740853195
48.96,0.006838260125154507
49.04,0.0068682773734969095
49.120000000000005,0.006895730391684538
49.2,0.0069204688946655595
49.28,0.006942351799633754
49.36,0.0069612479165994876
49.44,0.006977036598200363
49.52,0.006989608343152161
49.6,0.006998865348098703
49.68,0.007004722003038193
49.76,0.007007105325968557
49.84,0.007005955332906669
49.92,0.00700122533998938
50.0,0.006992882194946943
50.08,0.00698090643585135
50.160000000000004,0.006965292375680429
50.24,0.006946048111877261
50.32,0.006923195460742555
50.4,0.006896769817150289
50.480000000000004,0.006866819940718055
50.56,0.006833407670198289
50.64,0.006796607568464574
50.72,0.006756506501043261
50.800000000000004,0.006713203151700372
50.88,0.0066668074790876206
50.96,0.006617440118926628
51.04,0.006565231736619433
51.120000000000005,0.006510322335538058
51.2,0.006452860526548693
51.28,0.006393002764577887
51.36,0.0063309125582110964
51.44,0.006266759658441687
51.52,0.006200719232749667
51.6,0.006132971030691804
51.68,0.006063698547128229
51.76,0.005993088189089344
51.84,0.005921328452113111
51.92,0.005848609111660814
52.0,0.005775120434929545
52.08,0.005701052418070826
52.160000000000004,0.005626594053446286
52.24,0.005551932631156888
52.32,0.0054772530786447934
52.4,0.005402737341705967
52.480000000000004,0.005328563809771604
52.56,0.005254906787818718
52.64,0.005181936016758933
52.72,0.005109816243650568
52.800000000000004,0.0050387068425577965
52.88,0.004968761486385956
52.96,0.004900127869519582
53.04,0.004832947480616027
53.120000000000005,0.004767355424450037
53.2,0.004703480291266696
53.28,0.00464144407169942
53.36,0.004581362114932457
53.44,0.004523343127444037
53.52,0.004467489209371931
53.6,0.004413895925262732
53.68,0.004362652405758404
53.76,0.004313841476571087
53.84,0.004267539810972887
53.92,0.004223818101911263
54.0,0.004182741249814824
54.08,0.004144368562128847
54.160000000000004,0.004108753960653153
54.24,0.004075946192809821
54.32,0.004045989043078249
54.4,0.004018921540969245
54.480000000000004,0.003994778162085743
54.56,0.003973589019022903
54.64,0.003955380039096018
54.72,0.003940173126147438
54.800000000000004,0.003927986303973861
54.88,0.0039188338392226124
54.96,0.003912726341937129
55.04,0.003909670842273741
