Frequency,PSD
6.0,0.4267212350018362
6.08,0.4262049730921524
6.16,0.42522724762292163
6.24,0.4238930723517214
6.32,0.42234882578497007
6.4,0.4207697962143241
6.48,0.41934517211960853
6.5600000000000005,0.41826191260605683
6.640000000000001,0.41768923434331523
6.72,0.4177655666585279
6.8,0.4185896642970844
6.88,0.4202170861173815
6.96,0.42266248060510614
7.04,0.4259071790861231
7.12,0.4299106608367774
7.2,0.4346237208030863
7.28,0.4400008149468877
7.36,0.44600918322553923
7.44,0.45263295649494195
7.5200000000000005,0.4598714339707912
7.6000000000000005,0.46773187899685686
7.68,0.4762182873260393
7.76,0.4853184109827657
7.84,0.49499171239821993
7.92,0.505160815125862
8.0,0.5157084511988946
8.08,0.5264810098265558
8.16,0.5372987452220617
8.24,0.5479716844003811
8.32,0.5583194356364934
8.4,0.5681925253424416
8.48,0.5774926180584942
8.56,0.5861889914974162
8.64,0.59432891738878
8.72,0.6020401106839451
8.8,0.6095241332169183
8.88,0.6170405512558587
8.96,0.6248827082321812
9.040000000000001,0.6333471034389371
9.120000000000001,0.6426994336267938
9.200000000000001,0.6531411835061784
9.28,0.6647810549901967
9.36,0.6776153449837635
9.44,0.6915205376396503
9.52,0.7062599073720623
9.6,0.7215040061765354
9.68,0.7368628247508124
9.76,0.7519255346566356
9.84,0.7663024006512065
9.92,0.7796629795084665
10.0,0.7917652252137221
10.08,0.8024715425742508
10.16,0.8117499288619405
10.24,0.8196607346338309
10.32,0.8263318212160574
10.4,0.8319265910569797
10.48,0.8366102370572694
10.56,0.8405194917669432
10.64,0.8437402363334295
10.72,0.846295785145928
10.8,0.8481468183053148
10.88,0.8492021279826362
10.96,0.8493378605906959
11.040000000000001,0.8484219597726574
11.120000000000001,0.8463401155009778
11.200000000000001,0.8430196670531055
11.28,0.8384484807191216
11.36,0.8326866747217909
11.44,0.8258700357856635
11.52,0.8182049266464979
11.6,0.8099553218544676
11.68,0.8014232753645917
11.76,0.7929246045047822
11.84,0.7847618892011288
11.92,0.7771970657766136
12.0,0.7704259698602196
12.08,0.7645571609301209
12.16,0.7595972210504941
12.24,0.7554444174064239
12.32,0.7518921003112766
12.4,0.7486424428309052
12.48,0.7453301288491008
12.56,0.7415544415154365
12.64,0.7369170369064988
12.72,0.731061696883512
12.8,0.7237117367355073
12.88,0.7147006553742369
12.96,0.7039921370464992
13.040000000000001,0.6916866170985724
13.120000000000001,0.6780131768069626
13.200000000000001,0.6633073162621854
13.280000000000001,0.647976909673197
13.36,0.6324601203343029
13.44,0.6171800394060141
13.52,0.6025011907939813
13.6,0.5886927832347681
13.68,0.5759027462270029
13.76,0.5641452834552801
13.84,0.5533030863021879
13.92,0.5431436641757996
14.0,0.5333476635703808
14.08,0.5235457448766998
14.16,0.5133597140636856
14.24,0.5024432661477373
14.32,0.49051792583967235
14.4,0.4774005309830248
14.48,0.4630197850252331
14.56,0.4474208327421044
14.64,0.4307582801178394
14.72,0.4132793758866588
14.8,0.3953000270565254
14.88,0.3771768290859609
14.96,0.3592783308866229
15.040000000000001,0.3419583824147116
15.120000000000001,0.32553374494916526
15.200000000000001,0.31026732741898355
15.280000000000001,0.29635758971602155
15.36,0.2839339400113676
15.44,0.2730574176876294
15.52,0.26372562026616764
15.6,0.25588068745168113
15.68,0.24941916060426217
15.76,0.24420264608276276
15.84,0.2400683845876844
15.92,0.2368390351237214
16.0,0.23433120226006082
16.080000000000002,0.23236245776892295
16.16,0.2307568236465782
16.240000000000002,0.22934888113199836
16.32,0.22798683162698744
16.4,0.22653493667584915
16.48,0.22487578054472143
16.56,0.2229127124667242
16.64,0.2205726345486431
16.72,0.21780902791668724
16.8,0.2146048028352679
16.88,0.21097428883003463
16.96,0.20696352707858776
17.04,0.20264805683378945
17.12,0.19812763515702986
17.2,0.1935177807163329
17.28,0.18893861972877926
17.36,0.18450212214576797
17.44,0.18029931340686206
17.52,0.17638930511101977
17.6,0.17279192152304962
17.68,0.1694852878716503
17.76,0.16640904508328752
17.84,0.16347298364917315
17.92,0.16057000738466315
18.0,0.15759161306635658
18.080000000000002,0.154443642201757
18.16,0.1510600064182369
18.240000000000002,0.14741241486172132
18.32,0.14351477505373747
18.400000000000002,0.13942177619607365
18.48,0.13522204479544342
18.56,0.13102703692005255
18.64,0.1269573790771465
18.72,0.12312861954041202
18.8,0.11963829029063573
18.88,0.11655584644489006
18.96,0.11391652495467369
19.04,0.11171954794480167
19.12,0.10993048941023462
19.2,0.10848711201065872
19.28,0.10730762154963938
19.36,0.10630010797928066
19.44,0.10537194249316889
19.52,0.10443805676975537
19.6,0.10342730346902881
19.68,0.10228643881439642
19.76,0.10098162795672452
19.84,0.09949770360480265
19.92,0.09783566691038084
20.0,0.09600907719627585
20.080000000000002,0.09404001989095877
20.16,0.0919552743700687
20.240000000000002,0.0897831478309774
20.32,0.08755123469345134
20.400000000000002,0.08528514720548887
20.48,0.0830080834536964
20.56,0.08074098386673362
20.64,0.07850298884529287
20.72,0.0763119413672641
20.8,0.07418475674201785
20.88,0.07213757673638356
20.96,0.07018570818723013
21.04,0.06834339757505979
21.12,0.06662350726322189
21.2,0.0650371439011223
21.28,0.06359326115370034
21.36,0.062298235436753974
21.44,0.061155407690427835
21.52,0.060164600186937714
21.6,0.05932164895633435
21.68,0.058618026802965434
21.76,0.05804065450068691
21.84,0.057571997590909994
21.92,0.057190519573542556
22.0,0.05687151386178592
22.080000000000002,0.056588277980369237
22.16,0.05631353830456255
22.240000000000002,0.0560209948093272
22.32,0.055686840325143
22.400000000000002,0.055291118290623074
22.48,0.0548188111880206
22.56,0.054260589046864795
22.64,0.053613183428574115
22.72,0.05287937982437868
22.8,0.052067638022675666
22.88,0.05119135856964471
22.96,0.05026782044561446
23.04,0.04931682777634845
23.12,0.04835912666135929
23.2,0.04741468707924388
23.28,0.04650098371736555
23.36,0.045631443289580687
23.44,0.04481424241939176
23.52,0.044051629178860546
23.6,0.04333989771286893
23.68,0.042670071183695646
23.76,0.04202925330837115
23.84,0.04140250872344252
23.92,0.040775045624428186
24.0,0.040134417512110276
24.080000000000002,0.03947244619923833
24.16,0.03878659954488045
24.240000000000002,0.03808063025120454
24.32,0.037364384609707944
24.400000000000002,0.036652805553334666
24.48,0.0359642644046567
24.560000000000002,0.035318443684463824
24.64,0.034734047026502186
24.72,0.03422662540519364
24.8,0.03380678176761313
24.88,0.033478954922947946
24.96,0.033240898905024074
25.04,0.03308387942836054
25.12,0.03299351856849543
25.2,0.03295114499936543
25.28,0.032935459289658964
25.36,0.03292430656155836
25.44,0.03289636177762059
25.52,0.03283257080720054
25.6,0.03271724444240391
25.68,0.03253876214496064
25.76,0.03228989722150461
25.84,0.03196781708892251
25.92,0.03157383630921137
26.0,0.031113004936737697
26.080000000000002,0.030593602844306754
26.16,0.03002658739528203
26.240000000000002,0.02942501422099817
26.32,0.0288034265159051
26.400000000000002,0.028177193765704794
26.48,0.027561780414378192
26.560000000000002,0.026971939477275712
26.64,0.026420852455507505
26.72,0.02591926853418962
26.8,0.02547472421551962
26.88,0.025090940439541735
26.96,0.024767491388700887
27.04,0.024499815369936753
27.12,0.02427959647610251
27.2,0.024095493944412752
27.28,0.02393414490805379
27.36,0.023781326340068656
27.44,0.023623141492609172
27.52,0.023447098441722436
27.6,0.023242971580862457
27.68,0.023003374803495
27.76,0.022724019050773057
27.84,0.02240366832114893
27.92,0.022043840731565838
28.0,0.0216483216246805
28.080000000000002,0.021222564086088438
28.16,0.020773050854238695
28.240000000000002,0.020306683580888024
28.32,0.019830253413710988
28.400000000000002,0.019350032536048844
28.48,0.018871510245170038
28.560000000000002,0.018399279680102375
28.64,0.017937063177312914
28.72,0.017487847134662064
28.8,0.017054083754432296
28.88,0.016637909857148563
28.96,0.016241334063885195
29.04,0.015866353335589445
29.12,0.015514976408668828
29.2,0.015189151642310784
29.28,0.014890615962175675
29.36,0.014620696096577112
29.44,0.014380100708709367
29.52,0.014168741802636628
29.6,0.013985617171452733
29.68,0.01382877501744326
29.76,0.01369536975879511
29.84,0.013581806423713722
29.92,0.013483960958381655
30.0,0.013397455458757087
30.080000000000002,0.01331796065944801
30.16,0.013241493091281867
30.240000000000002,0.013164671865908053
30.32,0.013084901329968611
30.400000000000002,0.013000452209152628
30.48,0.012910426045909636
30.560000000000002,0.012814605092322063
30.64,0.012713210020411182
30.72,0.012606607026207053
30.8,0.012495019589590112
30.88,0.012378304246201764
30.96,0.01225584189354869
31.04,0.012126576683421084
31.12,0.011989206604898321
31.2,0.011842498898081227
31.28,0.011685675981908316
31.36,0.011518799632036277
31.44,0.01134307671305644
31.52,0.011161019919030566
31.6,0.010976419667551385
31.68,0.01079411399993461
31.76,0.010619576227876907
31.84,0.010458369343572362
31.92,0.010315537280092095
32.0,0.010195013253278418
32.08,0.010099123930511
32.160000000000004,0.010028256062982646
32.24,0.009980731686517042
32.32,0.00995291191813875
32.4,0.009939520932127044
32.480000000000004,0.009934154159201403
32.56,0.009929911328111676
32.64,0.009920078620283565
32.72,0.009898777320921351
32.8,0.009861500305940487
32.88,0.009805472461783761
32.96,0.009729794987392019
33.04,0.009635363180711655
33.12,0.009524578341521005
33.2,0.009400902035377417
33.28,0.009268320896465336
33.36,0.009130799471282283
33.44,0.008991796242552457
33.52,0.00885390480840698
33.6,0.00871866078513945
33.68,0.008586529004692246
33.76,0.008457059027120666
33.84,0.008329173640498065
33.92,0.008201537854485677
34.0,0.008072946826090653
34.08,0.00794267095693169
34.160000000000004,0.0078107047447544525
34.24,0.007677881559135286
34.32,0.007545837224078042
34.4,0.007416828373217343
34.480000000000004,0.007293433842968959
34.56,0.0071781856620156785
34.64,0.007073187616139195
34.72,0.006979781892859656
34.800000000000004,0.006898317212788826
34.88,0.006828055995077042
34.96,0.00676723594857289
35.04,0.006713276769761493
35.12,0.0066630997251541715
35.2,0.006613510919573509
35.28,0.006561591004673333
35.36,0.006505036180678279
35.44,0.006442406743500762
35.52,0.006373257424382378
35.6,0.006298144437030823
35.68,0.006218523266957753
35.76,0.006136565254749999
35.84,0.00605492781394133
35.92,0.005976512365685007
36.0,0.005904237167944298
36.08,0.0058408417895441855
36.160000000000004,0.005788729115913252
36.24,0.005749842216682425
36.32,0.005725568907460085
36.4,0.005716666823274047
36.480000000000004,0.005723205420492522
36.56,0.005744526741180569
36.64,0.005779231860052086
36.72,0.0058252028053071645
36.800000000000004,0.005879669274660517
36.88,0.005939325537485435
36.96,0.006000496367930458
37.04,0.006059343203395209
37.12,0.0061120946992136525
37.2,0.006155280948841612
37.28,0.006185948782271119
37.36,0.0062018369592713425
37.44,0.006201494320637835
37.52,0.006184330222031698
37.6,0.006150593883982257
37.68,0.006101286757414707
37.76,0.006038018909898407
37.84,0.005962826218203622
37.92,0.005877969305260367
38.0,0.005785737174930478
38.08,0.005688277881702358
38.160000000000004,0.005587474982121555
38.24,0.00548488197538716
38.32,0.005381718044564334
38.4,0.005278918395745531
38.480000000000004,0.005177223120201111
38.56,0.005077281717332225
38.64,0.004979747859048824
38.72,0.004885341509231355
38.800000000000004,0.004794862879982065
38.88,0.00470915349197986
38.96,0.0046290115110885904
39.04,0.004555078927397445
39.12,0.004487724728537419
39.2,0.004426949614987252
39.28,0.004372333874004849
39.36,0.0043230418577920315
39.44,0.0042778860616637
39.52,0.004235443347715331
39.6,0.004194207420620474
39.68,0.004152756544277809
39.76,0.00410991411904992
39.84,0.004064881756366885
39.92,0.004017329018660618
40.0,0.003967430001466212
40.08,0.0039158434971436635
40.160000000000004,0.0038636399158080295
40.24,0.0038121839883152554
40.32,0.0037629871770331925
40.4,0.0037175472828683033
40.480000000000004,0.003677194494993352
40.56,0.003642962610737781
40.64,0.003615501054582437
40.72,0.003595037722774019
40.800000000000004,0.0035813951770064965
40.88,0.0035740544437540137
40.96,0.0035722531423371595
41.04,0.0035750993947558174
41.12,0.003581681132886075
41.2,0.0035911524810790674
41.28,0.00360278444710504
41.36,0.0036159749818805414
41.44,0.0036302218287734885
41.52,0.003645068659351618
41.6,0.003660039352406698
41.68,0.003674576215838693
41.76,0.003687995635895218
41.84,0.0036994699703603653
41.92,0.003708038821995641
42.0,0.0037126475117280977
42.08,0.003712206665331336
42.160000000000004,0.0037056648267675112
42.24,0.00369208582092051
42.32,0.0036707236635920466
42.4,0.0036410894144816956
42.480000000000004,0.0036030058199142297
42.56,0.0035566465079890164
42.64,0.003502556860248084
42.72,0.003441653795084941
42.800000000000004,0.0033752020343390645
42.88,0.003304765429263984
42.96,0.0032321338188220873
43.04,0.003159228572814682
43.12,0.0030879929898894277
43.2,0.003020276406563672
43.28,0.0029577225262394317
43.36,0.0029016725786474174
43.44,0.002853092307068079
43.52,0.0028125287147566166
43.6,0.002780098611676572
43.68,0.0027555071118938977
43.76,0.002738091129119765
43.84,0.002726881138385602
43.92,0.0027206741648699156
44.0,0.002718111879984374
44.08,0.0027177592995353186
44.160000000000004,0.0027181812635490923
44.24,0.0027180151096421745
44.32,0.002716038454180737
44.4,0.0027112307818510668
44.480000000000004,0.002702826868452579
44.56,0.002690359300321493
44.64,0.0026736868732482513
44.72,0.0026530057080516745
44.800000000000004,0.002628840604437686
44.88,0.002602015414755023
44.96,0.0025736028929593605
45.04,0.0025448563414005865
45.12,0.0025171271973604015
45.2,0.0024917742308693588
45.28,0.0024700710406661257
45.36,0.0024531188558721707
45.44,0.002441771182652968
45.52,0.0024365756146070734
45.6,0.0024377363454698275
45.68,0.002445098910546341
45.76,0.0024581568256270073
45.84,0.0024760784186645887
45.92,0.0024977514172516008
46.0,0.0025218426816146083
46.08,0.0025468705569914665
46.160000000000004,0.002571287252264541
46.24,0.002593568089007438
46.32,0.0026123032925764664
46.4,0.00262628642441972
46.480000000000004,0.0026345920898259226
46.56,0.0026366348541638843
46.64,0.002632201942064337
46.72,0.0026214545533165615
46.800000000000004,0.0026048963348009394
46.88,0.0025833120759652384
46.96,0.002557684113021416
47.04,0.0025290972403933278
47.12,0.002498644360093751
47.2,0.0024673443109272768
47.28,0.0024360805031657835
47.36,0.0024055648118541384
47.44,0.0023763266160318347
47.52,0.002348722907171835
47.6,0.002322962800985623
47.68,0.0022991389435923423
47.76,0.00227725911707128
47.84,0.0022572733419178384
47.92,0.0022390942456998117
48.0,0.0022226107113321007
48.08,0.0022076963125795997
48.160000000000004,0.0021942145707263584
48.24,0.0021820227304231686
48.32,0.0021709749067415525
48.4,0.0021609245565252892
48.480000000000004,0.0021517256781073725
48.56,0.002143232165546568
48.64,0.002135295315641387
48.72,0.0021277603650692554
48.800000000000004,0.002120463746834011
48.88,0.002113233125403003
48.96,0.002105891954780198
49.04,0.0020982692812733517
49.120000000000005,0.002090214005597349
49.2,0.0020816112410097093
49.28,0.002072397243406115
49.36,0.002062569060168485
49.44,0.002052185753248937
49.52,0.0020413597162821477
49.6,0.0020302388571688534
49.68,0.002018982690774468
49.76,0.002007737069426932
49.84,0.001996612886140045
49.92,0.0019856733984392576
50.0,0.001974932956547732
50.08,0.001964367307080283
50.160000000000004,0.001953932912792545
50.24,0.0019435905503460867
50.32,0.001933327361398323
50.4,0.00192317181525457
50.480000000000004,0.0019131976458511453
50.56,0.0019035153947517813
50.64,0.0018942531454267664
50.72,0.0018855307028153682
50.800000000000004,0.0018774332440503645
50.88,0.0018699909174360076
50.96,0.0018631698514109084
51.04,0.001856877718160073
51.120000000000005,0.0018509838250300656
51.2,0.0018453503267586852
51.28,0.001839868283174187
51.36,0.0018344905834691803
51.44,0.0018292536705386865
51.52,0.0018242816741422235
51.6,0.001819769792489297
51.68,0.0018159480010231707
51.76,0.001813030609166483
51.84,0.0018111609069247636
51.92,0.001810362281082778
52.0,0.0018105071218396402
52.08,0.0018113123792332358
52.160000000000004,0.0018123660553690836
52.24,0.0018131830097941302
52.32,0.0018132823489261027
52.4,0.0018122736420725719
52.480000000000004,0.0018099363916374792
52.56,0.0018062773094264847
52.64,0.0018015531403709362
52.72,0.0017962524989316702
52.800000000000004,0.0017910373538903776
52.88,0.0017866520036160724
52.96,0.0017838132064464064
53.04,0.0017830984539022503
53.120000000000005,0.0017848496217021375
53.2,0.0017891064705879717
53.28,0.0017955793553876527
53.36,0.0018036641130054652
53.44,0.0018124956768198744
53.52,0.001821031640196675
53.6,0.0018281535765411186
53.68,0.001832772779123749
53.76,0.0018339281045545676
53.84,0.0018308662962356797
53.92,0.001823098799371421
54.0,0.0018104328727909557
54.08,0.0017929780827604129
54.160000000000004,0.0017711315903476106
54.24,0.0017455468604069772
54.32,0.0017170906330931431
54.4,0.0016867924976307137
54.480000000000004,0.0016557905565158448
54.56,0.001625275796989002
54.64,0.0015964371171106845
54.72,0.0015704085697604434
54.800000000000004,0.0015482202524995927
54.88,0.0015307542754339834
54.96,0.001518707258413514
55.04,0.0015125607470375252
