Frequency,PSD
6.0,0.5183251706151745
6.08,0.5169435023976051
6.16,0.5144457786373298
6.24,0.5112644407405373
6.32,0.5078437922123482
6.4,0.504493481775706
6.48,0.5013067142993913
6.5600000000000005,0.49816658489823074
6.640000000000001,0.49482446331683905
6.72,0.49100825615475396
6.8,0.4865167380038311
6.88,0.48127573539561663
6.96,0.47535821685415636
7.04,0.46898689876783495
7.12,0.46253657789543623
7.2,0.45653821761959723
7.28,0.45167055180614707
7.36,0.44871982597428983
7.44,0.44849804827888445
7.5200000000000005,0.45172850483520943
7.6000000000000005,0.45892313307462085
7.68,0.4702812482178634
7.76,0.4856321947735251
7.84,0.5044314567693295
7.92,0.5258079845511242
8.0,0.5486541397830949
8.08,0.5717479883215211
8.16,0.5938969264989883
8.24,0.6140884573722765
8.32,0.6316279685674159
8.4,0.6462376349169902
8.48,0.65808985320215
8.56,0.667756684226214
8.64,0.6760739298916095
8.72,0.6839406344938482
8.8,0.6920948064502651
8.88,0.7009167623932926
8.96,0.7103085816662381
9.040000000000001,0.7196824156463154
9.120000000000001,0.7280665995345065
9.200000000000001,0.7343130135032433
9.28,0.7373672575804563
9.36,0.7365481562655751
9.44,0.7317767404239408
9.52,0.7236989244337616
9.6,0.7136623480455297
9.68,0.7035362552288829
9.76,0.6953997408280678
9.84,0.6911594328446301
9.92,0.6921815313438927
10.0,0.6990258992990196
10.08,0.7113484837460015
10.16,0.7279975050377825
10.24,0.7472799610448426
10.32,0.7673322542830292
10.4,0.7865043175930193
10.48,0.8036664841319101
10.56,0.8183708255560354
10.64,0.8308361314175929
10.72,0.8417682898767977
10.8,0.852066648190897
10.88,0.8624947445355714
10.96,0.8734042834996929
11.040000000000001,0.8845893693916329
11.120000000000001,0.8953131615010026
11.200000000000001,0.9044986707587541
11.28,0.9110250782156413
11.36,0.914039203546997
11.44,0.9131908442334257
11.52,0.9087299440441041
11.6,0.9014496016987237
11.68,0.8925031817446074
11.76,0.8831518415350894
11.84,0.874506139717016
11.92,0.8673165311207787
12.0,0.8618504467267224
12.08,0.8578742822556668
12.16,0.85473912738743
12.24,0.851549755311698
12.32,0.847378784072086
12.4,0.8414760331669284
12.48,0.8334219410416223
12.56,0.8231865261241804
12.64,0.8110804533236576
12.72,0.7976160569070773
12.8,0.7833238923133927
12.88,0.7685843654905995
12.96,0.7535278461042363
13.040000000000001,0.7380315966612183
13.120000000000001,0.7218074099464733
13.200000000000001,0.7045441266219996
13.280000000000001,0.6860555573702216
13.36,0.6663893242801887
13.44,0.6458692733204698
13.52,0.6250636869626663
13.6,0.6046876336662611
13.68,0.5854604680694457
13.76,0.5679506159055672
13.84,0.5524474601587358
13.92,0.5388980799531496
14.0,0.5269297809841939
14.08,0.5159510074944618
14.16,0.5052956853076511
14.24,0.4943636492032062
14.32,0.482718946338624
14.4,0.4701322244646813
14.48,0.456578493231159
14.56,0.44221406004953917
14.64,0.42735236535793003
14.72,0.412443816355533
14.8,0.39805028305859497
14.88,0.38479928824030174
14.96,0.37330866732369045
15.040000000000001,0.3640862498145596
15.120000000000001,0.3574241886094909
15.200000000000001,0.3533168023295371
15.280000000000001,0.35142926466406826
15.36,0.35113151604932213
15.44,0.35159192344945034
15.52,0.35190682924227024
15.6,0.3512334471323062
15.68,0.3488979899520375
15.76,0.3444647219877467
15.84,0.3377661575063201
15.92,0.32890195689317475
16.0,0.31821227905622707
16.080000000000002,0.30622549961487855
16.16,0.29357828501581945
16.240000000000002,0.28091274622628126
16.32,0.26876840091614496
16.4,0.25749764512980955
16.48,0.24723347433615775
16.56,0.23792371506363008
16.64,0.22942154939870363
16.72,0.22159835366987812
16.8,0.21443338172418266
16.88,0.2080421217563376
16.96,0.20262932796722133
17.04,0.19838403912715377
17.12,0.19535904417201527
17.2,0.19338528939723837
17.28,0.19205896111618231
17.36,0.19081071686597184
17.44,0.18903473881129937
17.52,0.18623324939918223
17.6,0.18212858672084198
17.68,0.17671024909823968
17.76,0.17021062097790707
17.84,0.16302827502237816
17.92,0.15563133769090554
18.0,0.14847143280856742
18.080000000000002,0.14192506510358446
18.16,0.1362629473878012
18.240000000000002,0.13163749523468946
18.32,0.12807837538324976
18.400000000000002,0.12549303919410731
18.48,0.12367699728573163
18.56,0.1223410638500405
18.64,0.12115797187891028
18.72,0.11982161952754514
18.8,0.1181043681682522
18.88,0.11589595580752303
18.96,0.11321291105569105
19.04,0.1101772927359309
19.12,0.10697356397583374
19.2,0.10379830812584376
19.28,0.10081745486331764
19.36,0.09814061637373679
19.44,0.09581487934099
19.52,0.0938341778025712
19.6,0.09215727018546915
19.68,0.0907275531523731
19.76,0.08949007221774212
19.84,0.08840328489967439
19.92,0.087444318584173
20.0,0.08660688268914177
20.080000000000002,0.0858917372758885
20.16,0.08529152787491175
20.240000000000002,0.08477453495506243
20.32,0.08427393257581736
20.400000000000002,0.08368875423690014
20.48,0.08289924308530532
20.56,0.08179370938517484
20.64,0.08029887283763182
20.72,0.07840341886065177
20.8,0.07616632294899092
20.88,0.0737066755672877
20.96,0.07117810341861845
21.04,0.06873591302822309
21.12,0.06650699412447701
21.2,0.06457085025674156
21.28,0.06295572973759066
21.36,0.0616484573999114
21.44,0.06061219731430989
21.52,0.059804521144631334
21.6,0.059189307676082825
21.68,0.05873945131068598
21.76,0.05843154279223283
21.84,0.058236888239020304
21.92,0.058114322067238725
22.0,0.05800907683897419
22.080000000000002,0.0578591884826709
22.16,0.05760768053054658
22.240000000000002,0.05721625114716502
22.32,0.056675270572229604
22.400000000000002,0.05600598988974442
22.48,0.05525370824049024
22.56,0.05447425061553482
22.64,0.05371896298114919
22.72,0.05302411942062226
22.8,0.052408607134280534
22.88,0.05187979120899758
22.96,0.05144343577081496
23.04,0.05111151466108538
23.12,0.05090279058490126
23.2,0.05083472468547212
23.28,0.05090981881846443
23.36,0.051102710978338
23.44,0.051354733186725926
23.52,0.051580018365057594
23.6,0.05168273386385539
23.68,0.05158049241152141
23.76,0.05122626681206861
23.84,0.050621292152122355
23.92,0.04981443280256754
24.0,0.04888817751032746
24.080000000000002,0.04793599891073569
24.16,0.04703852067452424
24.240000000000002,0.04624580141101241
24.32,0.04557028681788085
24.400000000000002,0.04499089131329064
24.48,0.044464992491979494
24.560000000000002,0.043943238257137696
24.64,0.04338240318795699
24.72,0.04275348500324784
24.8,0.04204461906763696
24.88,0.041260112966634385
24.96,0.04041746221067
25.04,0.0395437868363819
25.12,0.03867231205511695
25.2,0.03783887168727716
25.28,0.037078212820743035
25.36,0.0364200778209652
25.44,0.035885425222161024
25.52,0.03548350868339979
25.6,0.03521069631094123
25.68,0.03505174086970271
25.76,0.03498360642962025
25.84,0.03498097782631478
25.92,0.03502157200638584
26.0,0.03508893056778734
26.080000000000002,0.035171040236823166
26.16,0.03525494419362494
26.240000000000002,0.03531976638209419
26.32,0.035332048801856544
26.400000000000002,0.03524693346655866
26.48,0.035016335181511815
26.560000000000002,0.03460184653179364
26.64,0.03398741770720659
26.72,0.03318636914580707
26.8,0.03223943420673308
26.88,0.031204328509941218
26.96,0.0301409637721259
27.04,0.029098127100120847
27.12,0.028106481477437748
27.2,0.027179684265642837
27.28,0.02632181088002682
27.36,0.02553680684104962
27.44,0.02483539269142787
27.52,0.02423661885846369
27.6,0.02376404491007858
27.68,0.023438869461844796
27.76,0.02327321402267636
27.84,0.02326599481110759
27.92,0.023402109119435025
28.0,0.023654129559706617
28.080000000000002,0.02398518145542065
28.16,0.024352260416337472
28.240000000000002,0.024710250304282998
28.32,0.02501736350237386
28.400000000000002,0.025242070623373622
28.48,0.02537006794890415
28.560000000000002,0.02540843684673095
28.64,0.025384011756255383
28.72,0.025334621646736645
28.8,0.02529480168183737
28.88,0.02528042696609042
28.96,0.02527798679147851
29.04,0.025243071423652255
29.12,0.02510943313233011
29.2,0.024806080244613896
29.28,0.02427696240116444
29.36,0.023497079755506224
29.44,0.022480423779747488
29.52,0.021278159895584053
29.6,0.01996855676786789
29.68,0.018642228297845356
29.76,0.01738680749292374
29.84,0.01627442676198839
29.92,0.015353944074303308
30.0,0.014648359931959409
30.080000000000002,0.01415672512994736
30.16,0.013859182633566308
30.240000000000002,0.013723572878718967
30.32,0.013712140136532758
30.400000000000002,0.013787183350238506
30.48,0.013914898358714331
30.560000000000002,0.014067098238295356
30.64,0.014220949906139986
30.72,0.014357309343196258
30.8,0.014458610099957758
30.88,0.014507425711011164
30.96,0.014486636518626646
31.04,0.014381540202913878
31.12,0.014183409638858196
31.2,0.013893255468162323
31.28,0.013524245804733236
31.36,0.013101543438998949
31.44,0.012659131750373425
31.52,0.012234184075620854
31.6,0.011860311973170338
31.68,0.011561355988436594
31.76,0.011347209815729191
31.84,0.01121261566862573
31.92,0.011139135728350505
32.0,0.011099788439951064
32.08,0.011065285088853809
32.160000000000004,0.011010496263926254
32.24,0.010919753869206992
32.32,0.010789850777993243
32.4,0.010630103184889217
32.480000000000004,0.010459511309934614
32.56,0.010301752593567961
32.64,0.01017927761938716
32.72,0.010107970320128508
32.8,0.010093597373661946
32.88,0.010130690578735377
32.96,0.010203812753311899
33.04,0.010290619495750155
33.12,0.010365902035596068
33.2,0.010405848441576628
33.28,0.0103919233097325
33.36,0.01031387816277393
33.44,0.010171435590458112
33.52,0.009974248426014229
33.6,0.009739958452485641
33.68,0.009490596952168614
33.76,0.009248052466896734
33.84,0.009029663185182392
33.92,0.008845005519302595
34.0,0.008694627918987816
34.08,0.008570948974852796
34.160000000000004,0.00846099547753302
34.24,0.008350258798885544
34.32,0.00822676604058058
34.4,0.008084481294760823
34.480000000000004,0.007925319406362865
34.56,0.007759325009286295
34.64,0.007602921235815572
34.72,0.007475542206887262
34.800000000000004,0.007395366909152432
34.88,0.007375149443172342
34.96,0.007419158806745728
35.04,0.00752194114849226
35.12,0.007669084231880684
35.2,0.007839613796840977
35.28,0.008009317992898104
35.36,0.008154284342948915
35.44,0.008254151915749465
35.52,0.008294811496125869
35.6,0.008270352534801644
35.68,0.008183962497557694
35.76,0.008047413875852895
35.84,0.007878933307861968
35.92,0.0076996824161018156
36.0,0.007529607891930541
36.08,0.0073837351040044385
36.160000000000004,0.007269870517476432
36.24,0.0071881724514848405
36.32,0.00713240413602499
36.4,0.007092213822688016
36.480000000000004,0.007055674488633576
36.56,0.007011519539903255
36.64,0.00695083407735354
36.72,0.0068682009797599065
36.800000000000004,0.006762369848113584
36.88,0.0066364631375014265
36.96,0.006497671045444638
37.04,0.006356398836114581
37.12,0.006224921025313286
37.2,0.006115707021699911
37.28,0.006039648353025945
37.36,0.006004418839399459
37.44,0.006013165683132773
37.52,0.006063702848291739
37.6,0.0061483660873682755
37.68,0.006254653020613091
37.76,0.006366661536817437
37.84,0.006467149867857205
37.92,0.00653984049898338
38.0,0.006571489231098547
38.08,0.00655331738859185
38.160000000000004,0.0064816355201678675
38.24,0.006357748498694011
38.32,0.006187382811040441
38.4,0.005979856129782568
38.480000000000004,0.005747080313422263
38.56,0.00550238866056001
38.64,0.005259209038479731
38.72,0.005029751994620553
38.800000000000004,0.004824022144278878
38.88,0.004649447974073269
38.96,0.00451120739081841
39.04,0.00441299468087394
39.12,0.0043577181895786
39.2,0.004347610655175626
39.28,0.004383521773008894
39.36,0.004463622690512325
39.44,0.004582150665769249
39.52,0.004728937703649652
39.6,0.004890212995945866
39.68,0.005050645479788736
39.76,0.005196040187464904
39.84,0.0053157821238597035
39.92,0.005404188654804963
40.0,0.005460358869991669
40.08,0.005486702436422136
40.160000000000004,0.00548682435351134
40.24,0.005463622702891291
40.32,0.00541826433058664
40.4,0.005350256542817639
40.480000000000004,0.005258361992816611
40.56,0.00514182871012472
40.64,0.00500142146680699
40.72,0.0048399729298209525
40.800000000000004,0.004662447230141555
40.88,0.004475664116860213
40.96,0.004287821628953079
41.04,0.00410785589455918
41.12,0.0039446117713683865
41.2,0.0038058382298195373
41.28,0.00369713957723429
41.36,0.0036211165282704245
41.44,0.003576943069321932
41.52,0.003560536840251879
41.6,0.0035653413611973694
41.68,0.003583603835810461
41.76,0.00360792504710784
41.84,0.0036327726375689866
41.92,0.0036555907726354897
42.0,0.0036771488792232626
42.08,0.0037009064043304904
42.160000000000004,0.003731444852175035
42.24,0.0037723621323833495
42.32,0.0038242924113238283
42.4,0.0038837598084697856
42.480000000000004,0.003943336195634368
42.56,0.003993126288958917
42.64,0.004023127711376461
42.72,0.004025708170553462
42.800000000000004,0.003997425779624351
42.88,0.003939680509094834
42.96,0.003858099454109149
43.04,0.0037609556219674566
43.12,0.003657163244109446
43.2,0.003554429750578436
43.28,0.003458007734310738
43.36,0.003370259982719793
43.44,0.0032910104247703496
43.52,0.003218462056869126
43.6,0.0031503502721866306
43.68,0.0030849800653743025
43.76,0.0030218699242881997
43.84,0.0029618761509329124
43.92,0.002906852810176464
44.0,0.0028590474828856134
44.08,0.0028204831578308893
44.160000000000004,0.0027925173782482587
44.24,0.002775643322858465
44.32,0.002769478898099545
44.4,0.002772840386106798
44.480000000000004,0.0027838277080906824
44.56,0.0027999191284271314
44.64,0.002818126648336172
44.72,0.0028352635569474805
44.800000000000004,0.0028483266310203557
44.88,0.0028549304166429305
44.96,0.0028536867962970086
45.04,0.0028444205861544863
45.12,0.0028281513625268238
45.2,0.002806838322464483
45.28,0.002782957017386095
45.36,0.0027590313515455517
45.44,0.002737261969655881
45.52,0.0027193626427520975
45.6,0.002706642822768012
45.68,0.002700276110479214
45.76,0.0027016029620096325
45.84,0.002712269280926872
45.92,0.002734031772142799
46.0,0.0027681747217708427
46.08,0.0028146540108845396
46.160000000000004,0.0028712496425056973
46.24,0.002933090177537883
46.32,0.0029928561847237557
46.4,0.0030417764709920678
46.480000000000004,0.003071265713891873
46.56,0.0030748168612151038
46.64,0.0030496463892949223
46.72,0.002997633424926989
46.800000000000004,0.002925270978330445
46.88,0.00284259426329099
46.96,0.002761295353862006
47.04,0.002692420818095013
47.12,0.002644148293902051
47.2,0.0026201346978879138
47.28,0.0026188195028505577
47.36,0.002633862320716371
47.44,0.002655628911028343
47.52,0.00267337415169544
47.6,0.0026775809115350824
47.68,0.0026618678876993117
47.76,0.0026240064109139295
47.84,0.0025658560742516934
47.92,0.0024923552969974283
48.0,0.002409971457511175
48.08,0.0023251300315358693
48.160000000000004,0.002243067480753331
48.24,0.002167329973117981
48.32,0.0020998701332854836
48.4,0.0020414910352219845
48.480000000000004,0.0019923261878712975
48.56,0.0019521309361043501
48.64,0.0019203308177514686
48.72,0.0018959302228492916
48.800000000000004,0.0018774529673587503
48.88,0.001863044457621199
48.96,0.001850753983663328
49.04,0.0018389084168395076
49.120000000000005,0.0018264447144834134
49.2,0.0018131005962562091
49.28,0.0017994346982648513
49.36,0.0017867053108186481
49.44,0.001776647832270814
49.52,0.0017711659927329565
49.6,0.0017719335143350466
49.68,0.0017799299557099725
49.76,0.0017950066632931722
49.84,0.0018156489340743348
49.92,0.0018391033819304889
50.0,0.0018619391822346024
50.08,0.0018809358837201806
50.160000000000004,0.0018940237592436626
50.24,0.001900940722757375
50.32,0.001903359326536399
50.4,0.0019044432704103283
50.480000000000004,0.0019080152398990961
50.56,0.0019176481333364921
50.64,0.0019359729429152366
50.72,0.0019643516794180978
50.800000000000004,0.0020028779575205317
50.88,0.002050539534233526
50.96,0.0021053662551685608
51.04,0.0021644867954831275
51.120000000000005,0.0022241606703829638
51.2,0.002279945954876579
51.28,0.002327141509715046
51.36,0.0023615050542781946
51.44,0.002380067858489222
51.52,0.002381751855172042
51.6,0.0023675259650656096
51.68,0.002340013742084864
51.76,0.0023026950393596236
51.84,0.00225900534146296
51.92,0.0022116443329620213
52.0,0.0021622696992928264
52.08,0.002111564940815505
52.160000000000004,0.002059540628980526
52.24,0.002005911952236185
52.32,0.0019504630906428712
52.4,0.0018933812742261656
52.480000000000004,0.0018355551839642492
52.56,0.001778781676459451
52.64,0.0017257698631113066
52.72,0.0016798416929211107
52.800000000000004,0.0016443275485062553
52.88,0.0016218008213126495
52.96,0.0016134029359574477
53.04,0.0016185097734538632
53.120000000000005,0.001634871326485301
53.2,0.0016591747792771066
53.28,0.0016878259977785469
53.36,0.0017176859900519233
53.44,0.00174655218191972
53.52,0.0017732976585520472
53.6,0.001797707951032121
53.68,0.0018201330081052706
53.76,0.001841088607231207
53.84,0.0018609159420018774
53.92,0.0018795678802425758
54.0,0.0018965505785101494
54.08,0.0019110110585971352
54.160000000000004,0.00192192539669583
54.24,0.0019283183326550008
54.32,0.0019294482035795823
54.4,0.0019249247820235917
54.480000000000004,0.0019147737463498808
54.56,0.0018994884096293905
54.64,0.0018800948131096065
54.72,0.0018582074891300019
54.800000000000004,0.0018360054681546409
54.88,0.0018160517904681755
54.96,0.0018009312461504951
55.04,0.0017927689602314362
