Frequency,PSD
6.0,0.5095049305047034
6.08,0.5090065877780052
6.16,0.508046424669173
6.24,0.5066937595416664
6.32,0.5050436943218884
6.4,0.5032076383603735
6.48,0.5013024656317184
6.5600000000000005,0.4994395346549027
6.640000000000001,0.49771477606000786
6.72,0.4962008785830538
6.8,0.4949423079021717
6.88,0.493953517602979
6.96,0.4932203105572633
7.04,0.49270393658061734
7.12,0.4923472165915569
7.2,0.49208179984201633
7.28,0.49183560681609706
7.36,0.49153958450282575
7.44,0.49113308326924354
7.5200000000000005,0.49056742164652345
7.6000000000000005,0.489807494834579
7.68,0.4888315609708408
7.76,0.48762956767347854
7.84,0.486200532076756
7.92,0.48454954647072135
8.0,0.4826849495668064
8.08,0.48061609460819116
8.16,0.4783519843467107
8.24,0.47590085904340024
8.32,0.47327064724697215
8.4,0.4704700461524761
8.48,0.4675099072661877
8.56,0.4644045728494707
8.64,0.4611728383409527
8.72,0.45783829615082405
8.8,0.45442893090262226
8.88,0.4509759657514831
8.96,0.4475120836025557
9.040000000000001,0.4440692478505661
9.120000000000001,0.44067641110573963
9.200000000000001,0.43735741974793235
9.28,0.43412939628450803
9.36,0.43100181613375876
9.44,0.4279764018241118
9.52,0.42504785053884764
9.6,0.4222053066110325
9.68,0.4194344039523539
9.76,0.41671964593581584
9.84,0.4140468681413936
9.92,0.41140554270454704
10.0,0.4087907259826643
10.08,0.40620451346799846
10.16,0.4036569344278709
10.24,0.40116628081250216
10.32,0.39875891028968075
10.4,0.39646858615048247
10.48,0.39433541717435855
10.56,0.3924044436985829
10.64,0.3907238916516608
10.72,0.38934309574837356
10.8,0.3883100873399972
10.88,0.3876688592625278
10.96,0.3874563618484342
11.040000000000001,0.38769934716992316
11.120000000000001,0.3884112525697084
11.200000000000001,0.3895893850006657
11.28,0.391212717961842
11.36,0.3932406273200468
11.44,0.39561285984055694
11.52,0.39825094468452427
11.6,0.4010611280190645
11.68,0.4039387476115479
11.76,0.40677378858144586
11.84,0.409457198524483
11.92,0.41188741563448455
12.0,0.413976498994275
12.08,0.41565525985231166
12.16,0.416876879796197
12.24,0.41761865789177505
12.32,0.41788173480081325
12.4,0.4176888701901197
12.48,0.41708056901042667
12.56,0.41611003205272545
12.64,0.4148375220065702
12.72,0.41332477317649274
12.8,0.4116300281333649
12.88,0.4098041671413299
12.96,0.4078882258569097
13.040000000000001,0.4059124001440634
13.120000000000001,0.4038964429753622
13.200000000000001,0.4018511942007219
13.280000000000001,0.3997808701122036
13.36,0.39768568780529806
13.44,0.3955644107256151
13.52,0.393416468312667
13.6,0.39124340870353763
13.68,0.3890495691999723
13.76,0.3868419741538769
13.84,0.38462957630290684
13.92,0.3824220328120231
14.0,0.38022824531263466
14.08,0.37805489462805825
14.16,0.37590517166595916
14.24,0.37377785576069344
14.32,0.3716668315212125
14.4,0.36956107518943265
14.48,0.3674450895173288
14.56,0.36529972695238083
14.64,0.3631033160060526
14.72,0.3608329939887362
14.8,0.3584661481069706
14.88,0.3559818729100227
14.96,0.3533623621579667
15.040000000000001,0.35059416501252905
15.120000000000001,0.3476692485320965
15.200000000000001,0.3445858199837681
15.280000000000001,0.341348873075002
15.36,0.33797043162560825
15.44,0.33446947229667634
15.52,0.3308715147928814
15.6,0.32720787387443445
15.68,0.3235145735533573
15.76,0.31983093161490983
15.84,0.3161978340818308
15.92,0.31265573627053656
16.0,0.30924245068534406
16.080000000000002,0.30599081164168773
16.16,0.30292633968091415
16.240000000000002,0.30006506095306273
16.32,0.29741166162061705
16.4,0.29495816818246345
16.48,0.2926833353691745
16.56,0.29055289002460444
16.64,0.28852072166244824
16.72,0.2865310317576468
16.8,0.2845213619417513
16.88,0.2824263269699501
16.96,0.2801817941317573
17.04,0.2777291888753332
17.12,0.2750195765906486
17.2,0.2720171783687079
17.28,0.2687020244844763
17.36,0.26507152824146324
17.44,0.2611408648484715
17.52,0.2569421521884107
17.6,0.2525225386029586
17.68,0.24794139417917815
17.76,0.24326686654908783
17.84,0.23857209433423734
17.92,0.2339313704087057
18.0,0.22941651700487392
18.080000000000002,0.2250936827524759
18.16,0.22102070742200594
18.240000000000002,0.21724513314867977
18.32,0.21380287973422302
18.400000000000002,0.21071755240764012
18.48,0.20800031640028227
18.56,0.20565025416829977
18.64,0.20365511597944505
18.72,0.201992379203075
18.8,0.20063054173682968
18.88,0.19953058661587628
18.96,0.198647565015221
19.04,0.19793225195134403
19.12,0.19733283274973643
19.2,0.19679657957418
19.28,0.19627147741612233
19.36,0.1957077593981543
19.44,0.1950593131635137
19.52,0.194284923973015
19.6,0.19334932569625682
19.68,0.1922240374302242
19.76,0.19088797005890473
19.84,0.18932779287474263
19.92,0.18753805503509113
20.0,0.18552106030969162
20.080000000000002,0.1832864969987006
20.16,0.1808508290898771
20.240000000000002,0.1782364607021204
20.32,0.1754706943197063
20.400000000000002,0.1725845143482882
20.48,0.16961124048524262
20.56,0.16658510896615275
20.64,0.16353985208642505
20.72,0.160507355428406
20.8,0.15751647595911528
20.88,0.15459210099390674
20.96,0.1517545169668005
21.04,0.14901913783036821
21.12,0.14639661645273988
21.2,0.1438933302524058
21.28,0.14151219708440466
21.36,0.13925374242113556
21.44,0.1371173080705227
21.52,0.13510227015416088
21.6,0.1332091236492836
21.68,0.13144029543236668
21.76,0.12980056893528147
21.84,0.12829704075642445
21.92,0.1269385801253761
22.0,0.1257348210491175
22.080000000000002,0.12469477751749958
22.16,0.12382522654496406
22.240000000000002,0.12312904434957223
22.32,0.12260370112361925
22.400000000000002,0.1222401154692898
22.48,0.1220220396459013
22.56,0.12192609380914993
22.64,0.12192249726751468
22.72,0.12197646591245034
22.8,0.12205016734010907
22.88,0.12210505876363326
22.96,0.12210438620503722
23.04,0.12201560259710892
23.12,0.12181246977954127
23.2,0.12147664361995072
23.28,0.12099859780546537
23.36,0.1203778126973806
23.44,0.11962223193472898
23.52,0.11874706191640236
23.6,0.11777304967094061
23.68,0.11672441685175525
23.76,0.11562664836826221
23.84,0.11450433314276919
23.92,0.11337923402850025
24.0,0.1122687284503935
24.080000000000002,0.11118471643676966
24.16,0.1101330442519956
24.240000000000002,0.10911344510446788
24.32,0.10811995751514215
24.400000000000002,0.10714174955851802
24.48,0.10616425455236622
24.560000000000002,0.10517051089894491
24.64,0.10414259488374228
24.72,0.1030630391295875
24.8,0.10191613981279155
24.88,0.10068907148506656
24.96,0.09937274830319655
25.04,0.09796239349347922
25.12,0.09645780359210115
25.2,0.09486331867551684
25.28,0.09318753234350793
25.36,0.09144279337736332
25.44,0.0896445626528475
25.52,0.0878106925070188
25.6,0.08596069080107153
25.68,0.0841150191367089
25.76,0.08229445616803949
25.84,0.080519535928098
25.92,0.07881005141412317
26.0,0.07718459914668582
26.080000000000002,0.07566013402427535
26.16,0.07425150706470542
26.240000000000002,0.0729709712174046
26.32,0.07182766008558852
26.400000000000002,0.07082706726922038
26.48,0.06997057537548876
26.560000000000002,0.06925509877691395
26.64,0.0686729090863292
26.72,0.06821170493731171
26.8,0.0678549680804531
26.88,0.06758261836829049
26.96,0.06737194514327477
27.04,0.06719875727155337
27.12,0.06703866420174792
27.2,0.06686838081159734
27.28,0.06666694264843062
27.36,0.0664167265181516
27.44,0.0661041929719913
27.52,0.0657202987858044
27.6,0.06526056430832905
27.68,0.06472481726915782
27.76,0.06411666627823581
27.84,0.06344277988813453
27.92,0.0627120584217723
28.0,0.06193478533979757
28.080000000000002,0.06112183404391626
28.16,0.06028398738682342
28.240000000000002,0.059431404321077
28.32,0.05857324480439052
28.400000000000002,0.057717443631880846
28.48,0.05687060877771697
28.560000000000002,0.056038011462862726
28.64,0.0552236336910368
28.72,0.054430243506657434
28.8,0.0536594770132052
28.88,0.05291191707728583
28.96,0.05218716937949383
29.04,0.05148394506724857
29.12,0.05080016426204658
29.2,0.05013309532890198
29.28,0.0494795411569228
29.36,0.048836076480086456
29.44,0.04819933081848366
29.52,0.047566301630988475
29.6,0.04693467351605355
29.68,0.04630311336261988
29.76,0.04567150938350084
29.84,0.04504112448551362
29.92,0.044414641268526484
30.0,0.0437960862508088
30.080000000000002,0.04319063330655588
30.16,0.04260429907773349
30.240000000000002,0.042043554551367816
30.32,0.04151488557254473
30.400000000000002,0.04102433974765074
30.48,0.040577097534388935
30.560000000000002,0.040177101499689484
30.64,0.03982677050037262
30.72,0.03952681605706208
30.8,0.039276167801864076
30.88,0.0390720049206737
30.96,0.03890988211172102
31.04,0.03878393253343884
31.12,0.03868712690139904
31.2,0.038611567295946274
31.28,0.038548795991078966
31.36,0.038490103087472624
31.44,0.03842682115959949
31.52,0.03835059970655388
31.6,0.03825365619504786
31.68,0.0381290033224087
31.76,0.03797065344891801
31.84,0.03777380085634406
31.92,0.03753498076274723
32.0,0.037252201299163436
32.08,0.03692504157010681
32.160000000000004,0.03655470622815947
32.24,0.03614402544092199
32.32,0.03569738933277651
32.4,0.03522060831082145
32.480000000000004,0.034720695163910784
32.56,0.03420557111406651
32.64,0.03368370541498839
32.72,0.03316370569430955
32.8,0.03265388297322776
32.88,0.03216182017035249
32.96,0.031693975120491345
33.04,0.03125534826722844
33.12,0.030849241182518444
33.2,0.0304771252987178
33.28,0.03013863142648763
33.36,0.0298316607274347
33.44,0.029552607859950532
33.52,0.02929667802354638
33.6,0.029058272433996744
33.68,0.028831411971602654
33.76,0.028610166682263967
33.84,0.02838905952137771
33.92,0.028163416008591197
34.0,0.027929636896186896
34.08,0.027685377981347927
34.160000000000004,0.027429629149866293
34.24,0.027162692918041118
34.32,0.026886070441515433
34.4,0.026602269549266845
34.480000000000004,0.026314554320706694
34.56,0.026026658704370164
34.64,0.025742487533605175
34.72,0.025465827105968585
34.800000000000004,0.0252000845492965
34.88,0.02494807096319391
34.96,0.024711838373897572
35.04,0.02449257547536778
35.12,0.024290562496075044
35.2,0.024105181745987594
35.28,0.023934977699767677
35.36,0.02377775890261476
35.44,0.02363073340802599
35.52,0.02349066960255841
35.6,0.023354074804068856
35.68,0.023217384602905265
35.76,0.023077156283802414
35.84,0.022930259667885644
35.92,0.022774058333918393
36.0,0.022606573533482208
36.08,0.022426622430109656
36.160000000000004,0.022233921854468295
36.24,0.022029148874585215
36.32,0.021813950389271922
36.4,0.02159089583585523
36.480000000000004,0.021363370012113553
36.56,0.021135406860101492
36.64,0.020911469616436182
36.72,0.020696187637746888
36.800000000000004,0.020494064993602807
36.88,0.020309180049144122
36.96,0.02014489819098876
37.04,0.020003621090460284
37.12,0.019886595077692096
37.2,0.01979379813776231
37.28,0.019723919797515393
37.36,0.01967444108207809
37.44,0.019641813380214115
37.52,0.01962172627945444
37.6,0.019609446152081246
37.68,0.019600200430904463
37.76,0.01958957791474113
37.84,0.019573913630869154
37.92,0.01955062794224849
38.0,0.01951849351182905
38.08,0.019477809848209057
38.160000000000004,0.019430472608565022
38.24,0.019379932657566813
38.32,0.019331047162535007
38.4,0.019289831058052747
38.480000000000004,0.019263121699319898
38.56,0.01925817250212037
38.64,0.01928219325290083
38.72,0.019341856203279537
38.800000000000004,0.019442788704643332
38.88,0.019589075462182155
38.96,0.019782796579319136
39.04,0.020023631008375314
39.12,0.02030855791096429
39.2,0.020631689493736192
39.28,0.020984266753856708
39.36,0.021354843110223405
39.44,0.02172966955195632
39.52,0.022093278990034368
39.6,0.022429248204634072
39.68,0.022721095294898686
39.76,0.022953251647777423
39.84,0.023112033134541615
39.92,0.023186528175502038
40.0,0.023169322298578175
40.08,0.023056990424921205
40.160000000000004,0.022850308475966478
40.24,0.02255416276466112
40.32,0.02217716569801406
40.4,0.021731015713887695
40.480000000000004,0.021229664298261355
40.56,0.020688370238985898
40.64,0.020122728968166685
40.72,0.019547762338924298
40.800000000000004,0.018977142318952984
40.88,0.01842260292859462
40.96,0.017893571193752945
41.04,0.01739702314114534
41.12,0.016937547984300517
41.2,0.016517585101140427
41.28,0.016137785804650133
41.36,0.015797445921687032
41.44,0.015494955592982402
41.52,0.01522821854942573
41.6,0.014995003003976269
41.68,0.014793198625363624
41.76,0.014620967261620692
41.84,0.014476787789520964
41.92,0.014359406602437565
42.0,0.014267714054020065
42.08,0.014200573186081474
42.160000000000004,0.014156630079039719
42.24,0.014134135176679004
42.32,0.014130802139151084
42.4,0.014143725520092687
42.480000000000004,0.014169371357260138
42.56,0.014203646276446501
42.64,0.014242041731657943
42.72,0.014279841419617568
42.800000000000004,0.0143123726002683
42.88,0.014335276824764187
42.96,0.014344773023388215
43.04,0.014337886358002719
43.12,0.014312619670854877
43.2,0.014268050376061402
43.28,0.014204343529913808
43.36,0.014122680632972532
43.44,0.014025112401686345
43.52,0.01391435127419547
43.6,0.013793524930414795
43.68,0.01366591504069265
43.76,0.013534705591567485
43.84,0.013402762617011075
43.92,0.01327246245892334
44.0,0.013145579500886293
44.08,0.013023237499936178
44.160000000000004,0.012905922021780175
44.24,0.012793545796571451
44.32,0.012685554592287837
44.4,0.01258105874580859
44.480000000000004,0.012478974842565372
44.56,0.012378163017838072
44.64,0.012277547626426202
44.72,0.012176212161626628
44.800000000000004,0.01207346285115575
44.88,0.011968858914409644
44.96,0.01186221071770124
45.04,0.011753549802978411
45.12,0.011643076882002328
45.2,0.011531095349371877
45.28,0.011417938685156651
45.36,0.01130390031478092
45.44,0.011189174085123686
45.52,0.011073812503022609
45.6,0.010957708266026121
45.68,0.01084060242124419
45.76,0.010722119799826107
45.84,0.010601829359791152
45.92,0.010479323992427852
46.0,0.010354311554788076
46.08,0.01022670677546281
46.160000000000004,0.010096712618831976
46.24,0.009964879969861107
46.32,0.009832136241135613
46.4,0.009699776617150112
46.480000000000004,0.009569415819591868
46.56,0.009442902981368455
46.64,0.009322206805621215
46.72,0.009209281982379344
46.800000000000004,0.009105930257016018
46.88,0.009013670212828662
46.96,0.008933628648033123
47.04,0.008866463605937593
47.12,0.008812325140390796
47.2,0.008770855435965355
47.28,0.008741225680727674
47.36,0.008722203754351083
47.44,0.008712244787276429
47.52,0.00870959612525108
47.6,0.00871240905113136
47.68,0.008718851363522084
47.76,0.008727217014501357
47.84,0.008736030852431777
47.92,0.008744147580638552
48.0,0.008750844012725915
48.08,0.008755902535677925
48.160000000000004,0.00875968162094615
48.24,0.00876316673038861
48.32,0.008767992681251637
48.4,0.00877642713663385
48.480000000000004,0.00879130497103824
48.56,0.008815905235301427
48.64,0.008853766455809925
48.72,0.008908441882288986
48.800000000000004,0.008983203561423831
48.88,0.009080711989954112
48.96,0.009202675605754097
49.04,0.009349530413107054
49.120000000000005,0.009520173534404743
49.2,0.009711784531593846
49.28,0.009919764368378683
49.36,0.01013781377070493
49.44,0.010358160924769022
49.52,0.01057193394457521
49.6,0.010769657877743423
49.68,0.010941841091078553
49.76,0.011079603695488991
49.84,0.011175293061976123
49.92,0.01122302979012009
50.0,0.01121913231941142
50.08,0.011162379427713861
50.160000000000004,0.011054085937834222
50.24,0.010897986085779948
50.32,0.010699938743905669
50.4,0.010467486482979337
50.480000000000004,0.010209314037280216
50.56,0.00993465949022102
50.64,0.0096527326928745
50.72,0.009372190298278663
50.800000000000004,0.0091007064553291
50.88,0.008844664423647243
50.96,0.008608979239349392
51.04,0.008397047151658668
51.120000000000005,0.008210805594343002
51.2,0.008050879124816565
51.28,0.007916782563193161
51.36,0.007807152354611319
51.44,0.007719980299783552
51.52,0.007652829255318542
51.6,0.00760301707446673
51.68,0.007567761878919544
51.76,0.007544287860850856
51.84,0.007529895624564884
51.92,0.007522004292199302
52.0,0.0075181741789332335
52.08,0.007516118947742774
52.160000000000004,0.007513715066379285
52.24,0.00750901445753736
52.32,0.007500263819003889
52.4,0.007485931537571291
52.480000000000004,0.007464740734672028
52.56,0.007435705019577855
52.64,0.007398162185070847
52.72,0.0073518004892234035
52.800000000000004,0.007296672374708102
52.88,0.007233191446809131
52.96,0.007162110138651204
53.04,0.007084477534914351
53.120000000000005,0.007001579044197434
53.2,0.006914861720098875
53.28,0.006825850758156102
53.36,0.006736063815022605
53.44,0.006646930162958827
53.52,0.006559721262136063
53.6,0.006475498165527459
53.68,0.006395079420263715
53.76,0.00631903101882264
53.84,0.006247677743083714
53.92,0.006181133193535368
54.0,0.006119344129978213
54.08,0.006062143633546737
54.160000000000004,0.006009307121335043
54.24,0.00596060541304122
54.32,0.005915849799775219
54.4,0.005874925276884622
54.480000000000004,0.005837809616233932
54.56,0.0058045775935674174
54.64,0.005775391281592648
54.72,0.005750478717037082
54.800000000000004,0.005730104329022507
54.88,0.005714535193649178
54.96,0.0057040074137950595
55.04,0.005698696712783703
