Frequency,PSD
6.057142857142857,0.5427190352866171
6.171428571428571,0.5408196866032794
6.285714285714286,0.5373348126006108
6.3999999999999995,0.5328407348741897
6.514285714285714,0.5280856502392397
6.628571428571428,0.5238800607808349
6.742857142857143,0.5209908955651489
6.857142857142857,0.5200580388924168
6.9714285714285715,0.5215437236863109
7.085714285714285,0.5257157105146394
7.2,0.5326573569894003
7.314285714285714,0.5422935280879012
7.428571428571428,0.5544212301895816
7.542857142857143,0.5687369586517175
7.657142857142857,0.5848573685985046
7.771428571428571,0.6023342673415105
7.885714285714285,0.6206677582618483
8.0,0.6393219806685914
8.114285714285714,0.6577463462640619
8.228571428571428,0.6754021768952044
8.342857142857143,0.6917913854411
8.457142857142857,0.7064816703451504
8.571428571428571,0.7191226970009355
8.685714285714285,0.7294502351664596
8.799999999999999,0.7372794610824955
8.914285714285715,0.7424929045871204
9.028571428571428,0.7450307561901448
9.142857142857142,0.7448899503441303
9.257142857142856,0.7421335433492995
9.371428571428572,0.7369051028778708
9.485714285714286,0.7294371037114153
9.6,0.7200407566855848
9.714285714285714,0.70906900056541
9.828571428571427,0.6968538669833307
9.942857142857143,0.6836309073568897
10.057142857142857,0.669472245419622
10.17142857142857,0.6542519170572845
10.285714285714285,0.6376606131695685
10.4,0.6192732308192915
10.514285714285714,0.5986562537216135
10.628571428571428,0.5754887670194722
10.742857142857142,0.54966573810647
10.857142857142858,0.5213569949820994
10.971428571428572,0.4910083264944749
11.085714285714285,0.459287604619144
11.2,0.42699309980754213
11.314285714285713,0.3949487974725741
11.428571428571429,0.3639109041701993
11.542857142857143,0.3345023052365329
11.657142857142857,0.30718104353401937
11.77142857142857,0.2822389255018679
11.885714285714286,0.25982005508357586
12.0,0.239947510431261
12.114285714285714,0.22254877976358234
12.228571428571428,0.20747513270418422
12.342857142857142,0.19451478470070424
12.457142857142857,0.18340296687940824
12.571428571428571,0.1738331183235139
12.685714285714285,0.1654724702391333
12.799999999999999,0.1579829946616016
12.914285714285715,0.15104604314782194
13.028571428571428,0.14438697681555965
13.142857142857142,0.1377953561851925
13.257142857142856,0.13113699702440998
13.371428571428572,0.12435606818888903
13.485714285714286,0.1174677012882923
13.6,0.11054350662947374
13.714285714285714,0.10369337571979749
13.828571428571427,0.09704685210232827
13.942857142857143,0.09073645222528634
14.057142857142857,0.08488414388270625
14.17142857142857,0.07959124327535703
14.285714285714285,0.07493153100814648
14.4,0.07094736191751205
14.514285714285714,0.06764869393396791
14.628571428571428,0.06501500571215643
14.742857142857142,0.06299987068992474
14.857142857142856,0.06153756275167378
14.971428571428572,0.06055067818692736
15.085714285714285,0.059957575317128475
15.2,0.05967856557865438
15.314285714285713,0.05964020689308863
15.428571428571429,0.059777609177202116
15.542857142857143,0.060035176566109946
15.657142857142857,0.06036652050972181
15.77142857142857,0.060734294558237145
15.885714285714284,0.0611104331005033
16.0,0.06147682600883438
16.114285714285714,0.06182600401945033
16.228571428571428,0.06216113881233035
16.34285714285714,0.06249471250067572
16.457142857142856,0.06284559082600094
16.57142857142857,0.06323479783315472
16.685714285714287,0.06368079036634146
16.8,0.06419523355642343
16.914285714285715,0.06478008415539038
17.02857142857143,0.06542629549066054
17.142857142857142,0.06611391928714394
17.257142857142856,0.06681307065179111
17.37142857142857,0.06748528716449896
17.485714285714284,0.06808518026511189
17.599999999999998,0.06856269739908516
17.714285714285715,0.06886649806411506
17.82857142857143,0.06894873249639437
17.942857142857143,0.06877095538573734
18.057142857142857,0.0683102600266203
18.17142857142857,0.06756429490455135
18.285714285714285,0.06655384116241408
18.4,0.06532210137143062
18.514285714285712,0.06393059798388791
18.628571428571426,0.06245232953946166
18.742857142857144,0.06096334861848871
18.857142857142858,0.059534104787579555
18.97142857142857,0.05822178110529042
19.085714285714285,0.05706457246282499
19.2,0.05607853434737329
19.314285714285713,0.05525733278476549
19.428571428571427,0.05457493801889535
19.54285714285714,0.05399098052235886
19.657142857142855,0.05345810710733939
19.771428571428572,0.05293027889617442
19.885714285714286,0.052370644958877166
20.0,0.05175753203905369
20.114285714285714,0.05108730662167581
20.228571428571428,0.050373406500481756
20.34285714285714,0.04964162153005238
20.457142857142856,0.04892255704513569
20.57142857142857,0.04824292242764699
20.685714285714287,0.04761764861281864
20.8,0.047044723731482
20.914285714285715,0.0465040388185493
21.02857142857143,0.04596058580900651
21.142857142857142,0.045371289026727046
21.257142857142856,0.0446938654501558
21.37142857142857,0.0438956425140382
21.485714285714284,0.042960337904044
21.599999999999998,0.041891384244502054
21.714285714285715,0.04071127628089291
21.82857142857143,0.039457362292007525
21.942857142857143,0.03817523965525749
22.057142857142857,0.03691128327202786
22.17142857142857,0.03570580243786237
22.285714285714285,0.03458797233875794
22.4,0.03357317225260451
22.514285714285712,0.03266283739687143
22.628571428571426,0.03184650343144586
22.742857142857144,0.031105438872734373
22.857142857142858,0.030417119907717137
22.97142857142857,0.02975978113396482
23.085714285714285,0.029116350710074367
23.2,0.02847723128219366
23.314285714285713,0.027841600750697783
23.428571428571427,0.027217152626545185
23.54285714285714,0.026618437205398388
23.657142857142855,0.026064162563156343
23.771428571428572,0.025573939340719873
23.885714285714286,0.025164995611936046
24.0,0.024849356708652837
24.114285714285714,0.024631897995071025
24.228571428571428,0.024509552073293604
24.34285714285714,0.024471792525959102
24.457142857142856,0.024502325033266693
24.57142857142857,0.02458170078237215
24.685714285714283,0.024690354005736673
24.8,0.024811408991347008
24.914285714285715,0.024932571808908666
25.02857142857143,0.025046576352029344
25.142857142857142,0.02515000293907471
25.257142857142856,0.02524076503288142
25.37142857142857,0.025315026110426
25.485714285714284,0.02536459082147926
25.599999999999998,0.0253757736939696
25.71428571428571,0.02533035041879378
25.82857142857143,0.02520854529153168
25.942857142857143,0.024993321421890573
26.057142857142857,0.024674768761516953
26.17142857142857,0.024253309810407443
26.285714285714285,0.023740796548494453
26.4,0.0231592228178655
26.514285714285712,0.02253748280575321
26.628571428571426,0.0219071182060562
26.742857142857144,0.021298154351361134
26.857142857142858,0.020735915326577193
26.97142857142857,0.02023925321307652
27.085714285714285,0.019820125012865474
27.2,0.0194840899038568
27.314285714285713,0.019231186092814778
27.428571428571427,0.0190567765683099
27.54285714285714,0.01895222711924043
27.657142857142855,0.018905552959302366
27.771428571428572,0.018902312758718294
27.885714285714286,0.01892697714956589
28.0,0.01896477671344304
28.114285714285714,0.019003740949791185
28.228571428571428,0.01903640760974551
28.34285714285714,0.019060624312141408
28.457142857142856,0.01907902949588139
28.57142857142857,0.01909714985870687
28.685714285714283,0.019120475832758707
28.8,0.019151231806430066
28.914285714285715,0.01918571902028844
29.02857142857143,0.01921301435212515
29.142857142857142,0.019215478995482305
29.257142857142856,0.019171063913205125
29.37142857142857,0.019056932877526377
29.485714285714284,0.018853594936637453
29.599999999999998,0.018548636524729642
29.71428571428571,0.018139286583427446
29.82857142857143,0.017633377719401332
29.942857142857143,0.017048670721242512
30.057142857142857,0.01641086290344904
30.17142857142857,0.015750806405964726
30.285714285714285,0.015101485189389747
30.4,0.014495171669730474
30.514285714285712,0.013960987579181221
30.628571428571426,0.013522922526693728
30.74285714285714,0.013198283931499051
30.857142857142858,0.012996576344920525
30.97142857142857,0.012918895205477076
31.085714285714285,0.01295799692969516
31.2,0.013099205659070948
31.314285714285713,0.013322206259184559
31.428571428571427,0.01360357575672343
31.54285714285714,0.013919688696678372
31.657142857142855,0.014249480203413871
31.77142857142857,0.01457652967901751
31.885714285714286,0.014890058101587222
32.0,0.015184679073744094
32.114285714285714,0.015459034663707578
32.22857142857143,0.015713697286873003
32.34285714285714,0.015948863415118832
32.457142857142856,0.016162377319715534
32.57142857142857,0.01634851699017674
32.68571428571428,0.016497790204139818
32.8,0.01659777452333317
32.91428571428571,0.016634831880659114
33.028571428571425,0.01659636562762403
33.14285714285714,0.016473185664851796
33.25714285714285,0.016261520992879017
33.371428571428574,0.01596427858258754
33.48571428571429,0.015591290595242556
33.6,0.015158496458794137
33.714285714285715,0.014686228319506224
33.82857142857143,0.014196951521439549
33.94285714285714,0.013712904850501787
34.05714285714286,0.013254061633264497
34.17142857142857,0.012836701791353003
34.285714285714285,0.012472690289573235
34.4,0.01216936232857993
34.51428571428571,0.01192978128831029
34.628571428571426,0.011753100567633986
34.74285714285714,0.011634829343585814
34.857142857142854,0.011566944287189924
34.97142857142857,0.011537949686103584
35.08571428571428,0.011533106450336282
35.199999999999996,0.011535079154002755
35.31428571428572,0.011525172138048994
35.42857142857143,0.011485159387928273
35.542857142857144,0.011399508194096018
35.65714285714286,0.011257619252455466
35.77142857142857,0.011055616741808535
35.885714285714286,0.01079725724794381
36.0,0.010493685470120728
36.114285714285714,0.010162008961855658
36.22857142857143,0.009822928421780246
36.34285714285714,0.009497871547881245
36.457142857142856,0.009206179081973815
36.57142857142857,0.008962855696501416
36.68571428571428,0.008777240312725676
36.8,0.008652719796919991
36.91428571428571,0.0085873744485305
37.028571428571425,0.008575266484947514
37.14285714285714,0.008608002547157292
37.25714285714285,0.008676222536956551
37.371428571428574,0.008770763792371976
37.48571428571429,0.008883379653024177
37.6,0.009007014553800152
37.714285714285715,0.009135728224298515
37.82857142857143,0.00926441162616938
37.94285714285714,0.00938845182240003
38.05714285714286,0.009503490709006437
38.17142857142857,0.009605389379492155
38.285714285714285,0.00969045804571447
38.4,0.00975594315636088
38.51428571428571,0.009800685879689778
38.628571428571426,0.009825794074877946
38.74285714285714,0.009835123234107224
38.857142857142854,0.00983536008978046
38.97142857142857,0.00983555719180149
39.08571428571428,0.009846075195470965
39.199999999999996,0.009877032475637107
39.31428571428571,0.009936505124998909
39.42857142857143,0.010028823758328162
39.542857142857144,0.010153341228110749
39.65714285714286,0.01030397945945814
39.77142857142857,0.010469712725920559
39.885714285714286,0.010635944433306548
40.0,0.010786538029759991
40.114285714285714,0.010906123752972653
40.22857142857143,0.010982257639840622
40.34285714285714,0.011007064014999964
40.457142857142856,0.010978123705055902
40.57142857142857,0.010898534056965246
40.68571428571428,0.010776217482864113
40.8,0.01062266006029461
40.91428571428571,0.010451309768472469
41.028571428571425,0.01027586458947297
41.14285714285714,0.010108654436648719
41.25714285714285,0.009959287583302306
41.371428571428574,0.00983370222030426
41.48571428571429,0.00973373466575836
41.6,0.009657276362580841
41.714285714285715,0.009599030231214745
41.82857142857143,0.009551789753686524
41.94285714285714,0.009508062307323775
42.05714285714286,0.009461766672112173
42.17142857142857,0.009409684624012355
42.285714285714285,0.009352363464705813
42.4,0.009294257704560518
42.51428571428571,0.009243047746199579
42.628571428571426,0.009208245326889247
42.74285714285714,0.0091993460830269
42.857142857142854,0.00922388280081361
42.97142857142857,0.009285751054238605
43.08571428571428,0.009384125037915934
43.199999999999996,0.009513173192212588
43.31428571428571,0.00966264368043566
43.42857142857143,0.009819240340995773
43.542857142857144,0.009968569136620878
43.65714285714286,0.010097322388562077
43.77142857142857,0.010195304779040553
43.885714285714286,0.010256912372025272
44.0,0.01028176579768377
44.114285714285714,0.01027436409837743
44.22857142857143,0.010242835113069263
44.34285714285714,0.010197060899262905
44.457142857142856,0.010146597120567289
44.57142857142857,0.010098842506564332
44.68571428571428,0.010057837021691031
44.8,0.010023898381074333
44.91428571428571,0.00999409598979006
45.028571428571425,0.00996336903810074
45.14285714285714,0.009925971287872676
45.25714285714285,0.009876894092528926
45.37142857142857,0.009812976225439522
45.48571428571429,0.009733524138891982
45.6,0.009640397806677409
45.714285714285715,0.009537627900356758
45.82857142857143,0.00943069823677116
45.94285714285714,0.00932565143697651
46.05714285714286,0.00922816853071235
46.17142857142857,0.009142752163722689
46.285714285714285,0.009072119618138415
46.4,0.009016886911945878
46.51428571428571,0.008975591804900913
46.628571428571426,0.0089450549762376
46.74285714285714,0.008921017260105257
46.857142857142854,0.008898931321698474
46.97142857142857,0.008874751247231891
47.08571428571428,0.00884557340763213
47.199999999999996,0.008810042928566882
47.31428571428571,0.008768538512556334
47.42857142857143,0.008723253754204156
47.542857142857144,0.00867836943425178
47.65714285714286,0.008640530678147464
47.77142857142857,0.008619794416053022
47.885714285714286,0.008631101691571956
48.0,0.008696168991122959
48.114285714285714,0.008845494231852317
48.22857142857143,0.009119946240381083
48.34285714285714,0.009571174422026905
48.457142857142856,0.010259896786906869
48.57142857142857,0.01125110843628278
48.68571428571428,0.012605541207772769
48.8,0.014367414617809328
48.91428571428571,0.016549648084718708
49.028571428571425,0.0191190554440471
49.14285714285714,0.02198519967780137
49.25714285714285,0.024997009415799895
49.37142857142857,0.027950487184175452
49.48571428571429,0.030608732863706953
49.6,0.03273242121706967
49.714285714285715,0.03411565280412607
49.82857142857143,0.034619831349517544
49.94285714285714,0.03419783411703467
50.05714285714286,0.032902593475313775
50.17142857142857,0.030877876298542186
50.285714285714285,0.0283334364332418
50.4,0.025510448334282697
50.51428571428571,0.022645072976173554
50.628571428571426,0.01993768317220595
50.74285714285714,0.01753299730386993
50.857142857142854,0.015513053102192973
50.97142857142857,0.013901714850338186
51.08571428571428,0.01267715108056902
51.199999999999996,0.011787865913822056
51.31428571428571,0.011168315280046495
51.42857142857142,0.010751424355453749
51.542857142857144,0.010476859285778071
51.65714285714286,0.01029520730537987
51.77142857142857,0.010169016657862209
51.885714285714286,0.010071904542146702
52.0,0.009986787466040524
52.114285714285714,0.009903926568700075
52.22857142857143,0.009819102846379258
52.34285714285714,0.00973197266488162
52.457142857142856,0.009644549336831681
52.57142857142857,0.009559786037838584
52.68571428571428,0.009480328159877304
52.8,0.009407579398190152
52.91428571428571,0.00934122913647277
53.028571428571425,0.009279306381259825
53.14285714285714,0.009218689617715638
53.25714285714285,0.009155871766975984
53.37142857142857,0.009087713333808136
53.48571428571429,0.009011945980984124
53.6,0.00892730357504416
53.714285714285715,0.008833312770370612
53.82857142857143,0.0087299092143421
53.94285714285714,0.008617107224912025
54.05714285714286,0.008494919118797944
54.17142857142857,0.008363610618622185
54.285714285714285,0.008224234529768244
54.4,0.0080792597761642
54.51428571428571,0.007933050751884054
54.628571428571426,0.007791972845642621
54.74285714285714,0.007663995991788606
54.857142857142854,0.007557808437105247
54.97142857142857,0.007481595246812538
55.08571428571428,0.007441739439568726
