Frequency,PSD
6.057142857142857,0.37218390428942233
6.171428571428571,0.37903630155335605
6.285714285714286,0.39094388650382833
6.3999999999999995,0.4081450056849106
6.514285714285714,0.4355274692689922
6.628571428571428,0.48014275846530563
6.742857142857143,0.5449140336475775
6.857142857142857,0.623387536391792
6.9714285714285715,0.7003496253640107
7.085714285714285,0.7595168342953047
7.2,0.7932512419355185
7.314285714285714,0.8060336598996334
7.428571428571428,0.8090706949824913
7.542857142857143,0.8125524519092884
7.657142857142857,0.8228867772857693
7.771428571428571,0.8448314308978944
7.885714285714285,0.8844726632450706
8.0,0.9517767406545169
8.114285714285714,1.0626924623796699
8.228571428571428,1.2376786045923651
8.342857142857143,1.4931485752498106
8.457142857142857,1.827879637020689
8.571428571428571,2.2118772752598566
8.685714285714285,2.5854341423580647
8.799999999999999,2.8725792995741766
8.914285714285715,3.007007595960193
9.028571428571428,2.959632736880434
9.142857142857142,2.751441688642355
9.257142857142856,2.442490449774131
9.371428571428572,2.1040351866976796
9.485714285714286,1.790906533977272
9.6,1.5278486004476288
9.714285714285714,1.313006741228594
9.828571428571427,1.1326293226462154
9.942857142857143,0.9765265200920055
10.057142857142857,0.8448201061106025
10.17142857142857,0.7435151107766136
10.285714285714285,0.6754807139827783
10.4,0.6362302401335458
10.514285714285714,0.6171310398571033
10.628571428571428,0.6103148487388234
10.742857142857142,0.6096491776489417
10.857142857142858,0.608999747382807
10.971428571428572,0.6021155940966507
11.085714285714285,0.5845578290401257
11.2,0.5548187386645582
11.314285714285713,0.5138343993089979
11.428571428571429,0.46459711592304187
11.542857142857143,0.41218804742766174
11.657142857142857,0.3625764179937471
11.77142857142857,0.3199574585697798
11.885714285714286,0.28495147980499036
12.0,0.2554507091855163
12.114285714285714,0.2290077201160046
12.228571428571428,0.20440818547985556
12.342857142857142,0.18159685802545983
12.457142857142857,0.16091338690272955
12.571428571428571,0.14267132186808262
12.685714285714285,0.12715587099037018
12.799999999999999,0.11462205319164419
12.914285714285715,0.10514377969187091
13.028571428571428,0.09847786026259744
13.142857142857142,0.09404546138724271
13.257142857142856,0.09102331960149534
13.371428571428572,0.08860701066073134
13.485714285714286,0.08640818487248915
13.6,0.08461448025461815
13.714285714285714,0.08359488240545777
13.828571428571427,0.08323837745804469
13.942857142857143,0.08270808446452188
14.057142857142857,0.08093234073900907
14.17142857142857,0.07741385803843935
14.285714285714285,0.07259490237967911
14.4,0.06748071799757915
14.514285714285714,0.06301790591876236
14.628571428571428,0.059864388206352724
14.742857142857142,0.058513778443043576
14.857142857142856,0.05926149962910168
14.971428571428572,0.061902817974955976
15.085714285714285,0.06562714602995923
15.2,0.06937051118063245
15.314285714285713,0.07225351749000115
15.428571428571429,0.07370356741276249
15.542857142857143,0.07341585397191891
15.657142857142857,0.07146174410143916
15.77142857142857,0.06840053601861754
15.885714285714284,0.06505971567165848
16.0,0.06208686338911494
16.114285714285714,0.05971067531149763
16.228571428571428,0.057856317428621296
16.34285714285714,0.05635639413853991
16.457142857142856,0.05505839095683064
16.57142857142857,0.05389250218134675
16.685714285714287,0.05296774171350141
16.8,0.05260544514810234
16.914285714285715,0.05321045006871733
17.02857142857143,0.055035036052749335
17.142857142857142,0.05802091297642266
17.257142857142856,0.0618480437654942
17.37142857142857,0.06607498433720217
17.485714285714284,0.07012392359055787
17.599999999999998,0.07314149024349495
17.714285714285715,0.0741230740728909
17.82857142857143,0.07246887106597857
17.942857142857143,0.0685095215131454
18.057142857142857,0.06342790117875254
18.17142857142857,0.05863129728172919
18.285714285714285,0.05513897760304896
18.4,0.05337507479153132
18.514285714285712,0.05329972245993929
18.628571428571426,0.05460512202623748
18.742857142857144,0.056782491253333
18.857142857142858,0.05907525228839067
18.97142857142857,0.06053913188327012
19.085714285714285,0.060390491922384944
19.2,0.05846145447836803
19.314285714285713,0.055325645453543036
19.428571428571427,0.05193572859276581
19.54285714285714,0.0491100132413266
19.657142857142855,0.047277390026639436
19.771428571428572,0.04651713460554489
19.885714285714286,0.046658057063068636
20.0,0.047301684915177764
20.114285714285714,0.04785615359192633
20.228571428571428,0.04771805238185313
20.34285714285714,0.04658468592588455
20.457142857142856,0.04466972848233863
20.57142857142857,0.04257286801747352
20.685714285714287,0.040842361162938295
20.8,0.03960321345426705
20.914285714285715,0.0385863059626977
21.02857142857143,0.037491653720807955
21.142857142857142,0.03629800010334665
21.257142857142856,0.03522311205291077
21.37142857142857,0.03442582927802838
21.485714285714284,0.03380672573912522
21.599999999999998,0.0331165247700451
21.714285714285715,0.032203255136491256
21.82857142857143,0.0310973658902245
21.942857142857143,0.02989238182533601
22.057142857142857,0.028644691105295644
22.17142857142857,0.027434855206899714
22.285714285714285,0.026458192853596837
22.4,0.025951311885410198
22.514285714285712,0.02599006918092162
22.628571428571426,0.026373950842961263
22.742857142857144,0.02670500391508424
22.857142857142858,0.026568699073960884
22.97142857142857,0.02569589978329463
23.085714285714285,0.024067380498974653
23.2,0.0219336059244416
23.314285714285713,0.019709044241869686
23.428571428571427,0.01778223763267074
23.54285714285714,0.016373221388514443
23.657142857142855,0.015522317444067336
23.771428571428572,0.01516602283067655
23.885714285714286,0.015204735166333512
24.0,0.015518447928690683
24.114285714285714,0.015955189411914164
24.228571428571428,0.016344850981194044
24.34285714285714,0.016561898664402108
24.457142857142856,0.016590252768749533
24.57142857142857,0.01650997998064811
24.685714285714283,0.016396567103540212
24.8,0.01623246196619848
24.914285714285715,0.01593132258023804
25.02857142857143,0.015449866030744577
25.142857142857142,0.01486409394947317
25.257142857142856,0.01433583255049686
25.37142857142857,0.014018155754813579
25.485714285714284,0.013988157818015285
25.599999999999998,0.01422808937701604
25.71428571428571,0.014622439711846354
25.82857142857143,0.014969692827421749
25.942857142857143,0.01504212974155065
26.057142857142857,0.014688796343507105
26.17142857142857,0.013924826145515077
26.285714285714285,0.012954616095860478
26.4,0.012104446663324378
26.514285714285712,0.011668446878964431
26.628571428571426,0.011739504064423251
26.742857142857144,0.012161361292407477
26.857142857142858,0.0126683295924034
26.97142857142857,0.013088374570293004
27.085714285714285,0.01340106901046234
27.2,0.013608165225533287
27.314285714285713,0.013604849155937045
27.428571428571427,0.013235511174807446
27.54285714285714,0.012479846005797091
27.657142857142855,0.011548017083597201
27.771428571428572,0.01076733281639101
27.885714285714286,0.01037158700622461
28.0,0.010386237476884379
28.114285714285714,0.010677487460728234
28.228571428571428,0.011078678380229978
28.34285714285714,0.01148196115369431
28.457142857142856,0.011855772722361616
28.57142857142857,0.01220662827059245
28.685714285714283,0.012520639637926474
28.8,0.0127280401065865
28.914285714285715,0.012723358194804664
29.02857142857143,0.012430712253258395
29.142857142857142,0.01186686334182008
29.257142857142856,0.01115642181195139
29.37142857142857,0.010482032523165886
29.485714285714284,0.009992951432467777
29.599999999999998,0.009730729707608247
29.71428571428571,0.009625974311943916
29.82857142857143,0.009567020896309697
29.942857142857143,0.009482397615544851
30.057142857142857,0.009369772624409696
30.17142857142857,0.00925859190615234
30.285714285714285,0.009156893215861897
30.4,0.009035192684107105
30.514285714285712,0.008849866028596814
30.628571428571426,0.008573831241006889
30.74285714285714,0.008211156012942814
30.857142857142858,0.007794765363739346
30.97142857142857,0.0073774651663071275
31.085714285714285,0.007023030801607802
31.2,0.006793088149667913
31.314285714285713,0.006724128746836625
31.428571428571427,0.006804432128583593
31.54285714285714,0.006971538890626659
31.657142857142855,0.007139022131980782
31.77142857142857,0.007240540293513011
31.885714285714286,0.007268086482942443
32.0,0.007277967971381772
32.114285714285714,0.007347085626912341
32.22857142857143,0.007502133214430769
32.34285714285714,0.007687879832670802
32.457142857142856,0.007814735150405266
32.57142857142857,0.007836052321267833
32.68571428571428,0.007770134164835013
32.8,0.0076564092298312195
32.91428571428571,0.007511153023303223
33.028571428571425,0.007323764020599278
33.14285714285714,0.0070729008770864365
33.25714285714285,0.00674161729348423
33.371428571428574,0.006338376144631355
33.48571428571429,0.005914568293502941
33.6,0.005547399427396363
33.714285714285715,0.005291484004732271
33.82857142857143,0.005146059211651768
33.94285714285714,0.005065980368859764
34.05714285714286,0.004996008668014348
34.17142857142857,0.00490032373663328
34.285714285714285,0.004781022750151393
34.4,0.004679024543176453
34.51428571428571,0.004643153428464495
34.628571428571426,0.004681973835478354
34.74285714285714,0.004748277438947223
34.857142857142854,0.004781625800603288
34.97142857142857,0.0047668165137461395
35.08571428571428,0.004745683603382067
35.199999999999996,0.004775856966844636
35.31428571428572,0.004886091060176019
35.42857142857143,0.0050650437717946134
35.542857142857144,0.005272804663406312
35.65714285714286,0.0054521165607918035
35.77142857142857,0.005540498792804559
35.885714285714286,0.00549503301124721
36.0,0.0053217988591051655
36.114285714285714,0.005083856075378192
36.22857142857143,0.004872129726262222
36.34285714285714,0.004754312920300748
36.457142857142856,0.0047392213425101965
36.57142857142857,0.0047832449048050415
36.68571428571428,0.0048266040702914645
36.8,0.004821556324188934
36.91428571428571,0.0047347842002351285
37.028571428571425,0.004544423262281027
37.14285714285714,0.004254014085413387
37.25714285714285,0.00391007952398857
37.371428571428574,0.0035923093337944254
37.48571428571429,0.0033732379802059453
37.6,0.003279074858974348
37.714285714285715,0.003281876744578461
37.82857142857143,0.003324603499592501
37.94285714285714,0.0033580489908192545
38.05714285714286,0.0033652891912979623
38.17142857142857,0.0033610317028941175
38.285714285714285,0.003371867958528843
38.4,0.003415154410915443
38.51428571428571,0.0034899148621223984
38.628571428571426,0.003580659490336319
38.74285714285714,0.0036674332203183923
38.857142857142854,0.0037349120395559596
38.97142857142857,0.003775640984659164
39.08571428571428,0.003786723290595392
39.199999999999996,0.003765236193480402
39.31428571428571,0.003709421534756798
39.42857142857143,0.0036253351470533412
39.542857142857144,0.0035299568928478186
39.65714285714286,0.003444615469894634
39.77142857142857,0.00338401330682122
39.885714285714286,0.003350266976117676
40.0,0.00333452800286843
40.114285714285714,0.003322771612169974
40.22857142857143,0.0033032289489754807
40.34285714285714,0.0032749092236016497
40.457142857142856,0.0032545880260840716
40.57142857142857,0.0032747846246415323
40.68571428571428,0.003365336406427927
40.8,0.0035245641317361047
40.91428571428571,0.0037036180060399633
41.028571428571425,0.0038244551188744034
41.14285714285714,0.003823358110588795
41.25714285714285,0.0036875906077063047
41.371428571428574,0.0034594295657724332
41.48571428571429,0.0032106316757025627
41.6,0.003010520168785812
41.714285714285715,0.0029047673628840548
41.82857142857143,0.0029040108899551576
41.94285714285714,0.0029784446486282564
42.05714285714286,0.0030659991312967333
42.17142857142857,0.0031001714163763506
42.285714285714285,0.003042866371870603
42.4,0.0028982337601805826
42.51428571428571,0.002702374737453674
42.628571428571426,0.0025050742527206334
42.74285714285714,0.0023565789498969257
42.857142857142854,0.002296628515093457
42.97142857142857,0.002341291695432457
43.08571428571428,0.00247606062709278
43.199999999999996,0.002666594058633881
43.31428571428571,0.0028802973089997307
43.42857142857143,0.00309601463039797
43.542857142857144,0.0032924366033436304
43.65714285714286,0.0034343477563731914
43.77142857142857,0.0034794216037621465
43.885714285714286,0.0034014390669730387
44.0,0.0032067802277717487
44.114285714285714,0.002932075538968392
44.22857142857143,0.00263039713529515
44.34285714285714,0.002357365901379923
44.457142857142856,0.0021611453872905067
44.57142857142857,0.002074252256492621
44.68571428571428,0.002103930607153767
44.8,0.0022229986589139324
44.91428571428571,0.002372917999927015
45.028571428571425,0.002489478018386772
45.14285714285714,0.0025386043487403073
45.25714285714285,0.0025309425985588965
45.37142857142857,0.0025013348752697317
45.48571428571429,0.0024758894301246965
45.6,0.0024580888551806288
45.714285714285715,0.002439412208388538
45.82857142857143,0.0024160599348982776
45.94285714285714,0.002394408561004976
46.05714285714286,0.0023822788853610157
46.17142857142857,0.0023748865193302816
46.285714285714285,0.002349446959767778
46.4,0.002278150865719343
46.51428571428571,0.0021531893653057776
46.628571428571426,0.002001538400731671
46.74285714285714,0.0018721788209431834
46.857142857142854,0.0018048206595975675
46.97142857142857,0.001808405947420748
47.08571428571428,0.001866411295255691
47.199999999999996,0.0019576815021794688
47.31428571428571,0.0020688715750731895
47.42857142857143,0.002189380959593639
47.542857142857144,0.0023020127919855158
47.65714285714286,0.0023856315321259132
47.77142857142857,0.002427344459018117
47.885714285714286,0.002427708313154096
48.0,0.0023936277274902162
48.114285714285714,0.002332363749186185
48.22857142857143,0.002256572156746293
48.34285714285714,0.002190553279700823
48.457142857142856,0.0021633283020676803
48.57142857142857,0.0021910392511682144
48.68571428571428,0.0022652305203897443
48.8,0.002361625367292533
48.91428571428571,0.0024837095601402703
49.028571428571425,0.002790432360584979
49.14285714285714,0.003961681187524643
49.25714285714285,0.008091844409709276
49.37142857142857,0.02023892241649417
49.48571428571429,0.04962019395217728
49.6,0.10743448711011232
49.714285714285715,0.19828465263560863
49.82857142857143,0.3082683698321225
49.94285714285714,0.401937465921059
50.05714285714286,0.4387645575938759
50.17142857142857,0.4007894142691623
50.285714285714285,0.30643951036764955
50.4,0.19641083788803762
50.51428571428571,0.10598007432963297
50.628571428571426,0.04873292214170732
50.74285714285714,0.01981911586234392
50.857142857142854,0.00794591582393705
50.97142857142857,0.003921858937496404
51.08571428571428,0.0027624733665991084
51.199999999999996,0.0024405308371476
51.31428571428571,0.0023153974167356315
51.42857142857142,0.0022391638206292314
51.542857142857144,0.002196555503105999
51.65714285714286,0.0021855759970847667
51.77142857142857,0.0021910803450828995
51.885714285714286,0.002196668878732649
52.0,0.0022015487390613245
52.114285714285714,0.0022188393434978723
52.22857142857143,0.0022556122819510946
52.34285714285714,0.0022965818934856954
52.457142857142856,0.0023110254932924485
52.57142857142857,0.002278384797799901
52.68571428571428,0.0022073955533461584
52.8,0.0021295290508191473
52.91428571428571,0.0020740318477890348
53.028571428571425,0.0020484081341577615
53.14285714285714,0.0020385356446078226
53.25714285714285,0.002023503923517728
53.37142857142857,0.0019918537776163186
53.48571428571429,0.0019481278409987039
53.6,0.0019056915701232188
53.714285714285715,0.0018722086867132236
53.82857142857143,0.0018416101794063863
53.94285714285714,0.001801818753254393
54.05714285714286,0.0017523133010741865
54.17142857142857,0.001713760677675119
54.285714285714285,0.001717768030001557
54.4,0.0017850615771547985
54.51428571428571,0.0019121044023788663
54.628571428571426,0.002075386893235551
54.74285714285714,0.0022448862564336484
54.857142857142854,0.0023943636774580185
54.97142857142857,0.0025046205982212307
55.08571428571428,0.0025630081642000245
