Frequency,PSD
6.0,0.45803493316857125
6.08,0.45782512101509515
6.16,0.45741242376513785
6.24,0.45681049678918556
6.32,0.4560393298689947
6.4,0.45512466553118686
6.48,0.45409724121607675
6.5600000000000005,0.4529918715511124
6.640000000000001,0.45184639207468824
6.72,0.45070049104525733
6.8,0.44959446116088775
6.88,0.4485679077131888
6.96,0.44765845348520045
7.04,0.44690048318155406
7.12,0.4463239710376859
7.2,0.44595343429995304
7.28,0.44580705244681046
7.36,0.4458959874166686
7.44,0.4462239339183981
7.5200000000000005,0.44678692139896536
7.6000000000000005,0.4475733807343305
7.68,0.4485644794914803
7.76,0.4497347199453068
7.84,0.45105278415003747
7.92,0.4524826004671887
8.0,0.45398459626253407
8.08,0.4555170922866086
8.16,0.45703778593256256
8.24,0.45850526363323046
8.32,0.4598804777459082
8.4,0.46112812108127793
8.48,0.46221783345414186
8.56,0.4631251798358457
8.64,0.4638323491875914
8.72,0.4643285367958084
8.8,0.46460999040361267
8.88,0.4646797206346224
8.96,0.46454689768255863
9.040000000000001,0.46422597719580927
9.120000000000001,0.46373561676028047
9.200000000000001,0.4630974584778036
9.28,0.4623348612576527
9.36,0.4614716675238973
9.44,0.46053108273664833
9.52,0.45953473287615776
9.6,0.458501946083291
9.68,0.45744928190652534
9.76,0.4563903074657102
9.84,0.45533559689409314
9.92,0.4542929111361211
10.0,0.4532675016160231
10.08,0.4522624748372329
10.16,0.45127915617012876
10.24,0.45031739957442946
10.32,0.4493758045661314
10.4,0.448451820461115
10.48,0.44754173843478395
10.56,0.44664059169143017
10.64,0.4457420006433007
10.72,0.4448380114860407
10.8,0.44391898159713694
10.88,0.4429735632297286
10.96,0.44198882829534664
11.040000000000001,0.44095056265225413
11.120000000000001,0.4398437398790677
11.200000000000001,0.43865316405821186
11.28,0.43736425082505
11.36,0.435963897979171
11.44,0.43444138312672637
11.52,0.4327892174785441
11.6,0.43100388284176844
11.68,0.4290863831711357
11.76,0.42704255236070177
11.84,0.4248830753260804
11.92,0.4226231985410162
12.0,0.4202821275084633
12.08,0.4178821305413145
12.16,0.41544738913250495
12.24,0.4130026537063696
12.32,0.41057177850767396
12.4,0.40817621993854547
12.48,0.4058335882395244
12.56,0.4035563427663275
12.64,0.40135071624240837
12.72,0.3992159435043703
12.8,0.3971438558368243
12.88,0.3951188836233765
12.96,0.3931184884894223
13.040000000000001,0.39111402230528086
13.120000000000001,0.3890719854380721
13.200000000000001,0.38695563172715997
13.280000000000001,0.38472684419218806
13.36,0.3823481849502586
13.44,0.3797850067422026
13.52,0.37700750330679517
13.6,0.3739925728638149
13.68,0.37072537409934053
13.76,0.36720046772577564
13.84,0.36342245872759693
13.92,0.35940608390066553
14.0,0.35517572460612595
14.08,0.35076436345891737
14.16,0.3462120430759266
14.24,0.3415639218127514
14.32,0.33686805237522033
14.4,0.33217303134504017
14.48,0.3275256786690623
14.56,0.32296890459835526
14.64,0.31853990711733793
14.72,0.3142688164877676
14.8,0.31017786725154417
14.88,0.3062811350173008
14.96,0.302584829456467
15.040000000000001,0.2990880903566156
15.120000000000001,0.2957841944311586
15.200000000000001,0.2926620504413982
15.280000000000001,0.2897078417118826
15.36,0.2869066697792116
15.44,0.2842440608328069
15.52,0.2817072165759813
15.6,0.2792859207770566
15.68,0.2769730488317778
15.76,0.274764666358878
15.84,0.27265974036496304
15.92,0.2706595193475933
16.0,0.26876666405618155
16.080000000000002,0.2669842266487019
16.16,0.2653145818985384
16.240000000000002,0.263758410229913
16.32,0.2623138199580402
16.4,0.26097567718220815
16.48,0.2597351887778328
16.56,0.2585797594519041
16.64,0.257493120311152
16.72,0.25645570589746275
16.8,0.25544524066058233
16.88,0.25443748520267273
16.96,0.25340708752698776
17.04,0.2523284845543001
17.12,0.25117680347962806
17.2,0.2499287199764697
17.28,0.24856323953955783
17.36,0.24706237814825852
17.44,0.24541172785475762
17.52,0.24360090103418114
17.6,0.2416238533606105
17.68,0.23947908988286112
17.76,0.23716976093000136
17.84,0.2347036552575888
17.92,0.23209309727333222
18.0,0.22935475384577725
18.080000000000002,0.22650935459322954
18.16,0.2235813281121547
18.240000000000002,0.22059835568690767
18.32,0.217590843872556
18.400000000000002,0.21459131809797483
18.48,0.21163374113442687
18.56,0.20875276286463518
18.64,0.20598291114426223
18.72,0.2033577374857018
18.8,0.20090893557494452
18.88,0.19866545497233967
18.96,0.19665263642413458
19.04,0.19489139866921576
19.12,0.1933975090915183
19.2,0.19218097167130743
19.28,0.191245565084546
19.36,0.1905885612073208
19.44,0.19020064951987523
19.52,0.1900660859275137
19.6,0.1901630754488135
19.68,0.1904643873833683
19.76,0.19093818948005076
19.84,0.1915490749894724
19.92,0.19225924416273316
20.0,0.19302979071341778
20.080000000000002,0.1938220349746779
20.16,0.19459883987330995
20.240000000000002,0.1953258441561846
20.32,0.19597255002679656
20.400000000000002,0.1965132096227816
20.48,0.19692746633206484
20.56,0.1972007221321892
20.64,0.1973242198800135
20.72,0.19729484839503136
20.8,0.1971146966850349
20.88,0.19679040012213678
20.96,0.19633233427272245
21.04,0.19575372018645237
21.12,0.19506970746245159
21.2,0.1942964980838244
21.28,0.19345056518642828
21.36,0.1925480075229305
21.44,0.1916040638089313
21.52,0.19063279315104456
21.6,0.18964691026959923
21.68,0.18865774909538277
21.76,0.18767531712598667
21.84,0.1867083968070275
21.92,0.18576464970875722
22.0,0.18485068430577928
22.080000000000002,0.18397205801010394
22.16,0.18313319748264503
22.240000000000002,0.18233723648672598
22.32,0.1815857857806957
22.400000000000002,0.1808786629247934
22.48,0.18021361978106587
22.56,0.17958611071161706
22.64,0.17898914437720528
22.72,0.17841325657185136
22.8,0.1778466312827034
22.88,0.17727538326416958
22.96,0.1766839993972895
23.04,0.17605591973785684
23.12,0.17537422424064908
23.2,0.17462237931547558
23.28,0.17378499091241983
23.36,0.1728485085577944
23.44,0.17180182791907692
23.52,0.1706367477408517
23.6,0.16934824950904928
23.68,0.16793458368379488
23.76,0.16639716322387105
23.84,0.1647402817257082
23.92,0.16297068819632374
24.0,0.16109706187807432
24.080000000000002,0.1591294376096425
24.16,0.15707863436259806
24.240000000000002,0.15495573675375285
24.32,0.15277167190702756
24.400000000000002,0.15053691286304186
24.48,0.1482613259826252
24.560000000000002,0.14595416484174079
24.64,0.14362419841570284
24.72,0.14127994827026724
24.8,0.13892999918329732
24.88,0.13658334097548439
24.96,0.1342496968219493
25.04,0.13193979503753459
25.12,0.129665546976471
25.2,0.12744010261828845
25.28,0.12527776671626623
25.36,0.12319377098216114
25.44,0.12120391052735678
25.52,0.1193240645731733
25.6,0.1175696313156273
25.68,0.11595491402930305
25.76,0.11449249953454448
25.84,0.11319267083828571
25.92,0.11206289319074395
26.0,0.11110740734458112
26.080000000000002,0.11032695604734738
26.16,0.10971866048675302
26.240000000000002,0.10927605337000182
26.32,0.10898926538740243
26.400000000000002,0.10884535275223443
26.48,0.10882874595416309
26.560000000000002,0.10892179425803275
26.64,0.10910537705340077
26.72,0.1093595519190079
26.8,0.10966421000961338
26.88,0.10999971173091444
26.96,0.11034747916062448
27.04,0.11069052577604557
27.12,0.11101390826454335
27.2,0.11130508912022345
27.28,0.11155420210749571
27.36,0.11175421540941288
27.44,0.11190098945477256
27.52,0.11199322825445035
27.6,0.11203232488698678
27.68,0.11202210389237853
27.76,0.11196846604733567
27.84,0.11187894447219139
27.92,0.11176218525585009
28.0,0.11162737058064914
28.080000000000002,0.11148360729257656
28.16,0.11133930844913785
28.240000000000002,0.11120159895497479
28.32,0.11107577833030546
28.400000000000002,0.11096487340826419
28.48,0.11086931096492113
28.560000000000002,0.11078673484303447
28.64,0.1107119842236996
28.72,0.11063723981288842
28.8,0.11055233358928053
28.88,0.1104452063447573
28.96,0.11030248657176364
29.04,0.1101101553233718
29.12,0.10985425536543952
29.2,0.10952159988823801
29.28,0.10910043656294242
29.36,0.10858102677558136
29.44,0.1079561070525539
29.52,0.10722120930276971
29.6,0.1063748276070246
29.68,0.10541843082653823
29.76,0.10435633121475822
29.84,0.10319542854423405
29.92,0.10194485625653602
30.0,0.10061556033955035
30.080000000000002,0.09921984287821484
30.16,0.0977709006668728
30.240000000000002,0.09628238533939132
30.32,0.09476800579494829
30.400000000000002,0.0932411870171184
30.48,0.09171479246962962
30.560000000000002,0.09020091080928852
30.64,0.08871070225727831
30.72,0.08725429600597176
30.8,0.0858407276999619
30.88,0.08447790531159893
30.96,0.08317259245871796
31.04,0.08193040008577909
31.12,0.08075578007524344
31.2,0.07965201737669103
31.28,0.07862122026227344
31.36,0.07766431102062565
31.44,0.07678102154735296
31.52,0.07596989972480743
31.6,0.07522833313630424
31.68,0.07455259653155985
31.76,0.07393792860916115
31.84,0.0733786422075115
31.92,0.07286827002416392
32.0,0.07239974565768947
32.08,0.07196561723930915
32.160000000000004,0.07155828835310646
32.24,0.07117027849776897
32.32,0.07079449318517604
32.4,0.07042449206417206
32.480000000000004,0.07005474235254146
32.56,0.06968084448474601
32.64,0.06929971732903886
32.72,0.06890973163618345
32.8,0.06851078253154202
32.88,0.06810429476113251
32.96,0.06769315788850498
33.04,0.06728159248860163
33.12,0.0668749523269797
33.2,0.06647947125527906
33.28,0.06610196680999358
33.36,0.06574951502006399
33.44,0.06542911252003464
33.52,0.0651473426217127
33.6,0.06491006150295162
33.68,0.06472211920353071
33.76,0.06458712783140842
33.84,0.06450728649354312
33.92,0.06448326922199113
34.0,0.06451417881940949
34.08,0.0645975663260116
34.160000000000004,0.0647295128950982
34.24,0.06490476838151994
34.32,0.06511693896112195
34.4,0.0653587146190146
34.480000000000004,0.06562212633890556
34.56,0.06589882223967661
34.64,0.06618035167875698
34.72,0.06645844642513389
34.800000000000004,0.06672528836939565
34.88,0.06697375387948007
34.96,0.06719762584421299
35.04,0.06739176569736177
35.12,0.06755223930325976
35.2,0.06767639251151542
35.28,0.0677628744198964
35.36,0.06781160884607662
35.44,0.06782371708128637
35.52,0.06780139752418538
35.6,0.06774777008775354
35.68,0.06766669514448222
35.76,0.0675625780487975
35.84,0.06744017081010326
35.92,0.06730438220084088
36.0,0.06716010645769324
36.08,0.06701207883393588
36.160000000000004,0.06686476372617174
36.24,0.06672227813402519
36.32,0.06658835006940428
36.4,0.06646630848946482
36.480000000000004,0.06635909865866298
36.56,0.06626931479464802
36.64,0.06619924061010027
36.72,0.06615088804372868
36.800000000000004,0.06612602510791073
36.88,0.06612618530716277
36.96,0.06615265335525562
37.04,0.0662064247228432
37.12,0.06628813961545985
37.2,0.06639799502314714
37.28,0.0665356412117308
37.36,0.06670007118797577
37.44,0.06688951306937849
37.52,0.06710133580219893
37.6,0.06733197826239463
37.68,0.06757691049482265
37.76,0.06783063382815072
37.84,0.06808672404280716
37.92,0.06833791890642262
38.0,0.06857624848206031
38.08,0.06879320390612559
38.160000000000004,0.06897993803793231
38.24,0.06912748966022811
38.32,0.0692270218512949
38.4,0.06927006477464545
38.480000000000004,0.06924875339408147
38.56,0.06915605141577684
38.64,0.06898595394191487
38.72,0.06873366273088005
38.800000000000004,0.06839572943914032
38.88,0.0679701636345329
38.96,0.06745650362208608
39.04,0.06685584916017304
39.12,0.0661708559626299
39.2,0.06540569251933427
39.28,0.06456596029225659
39.36,0.06365857884037486
39.44,0.06269163797823651
39.52,0.06167421974555748
39.6,0.06061619379544414
39.68,0.059527990794879804
39.76,0.05842035953047561
39.84,0.057304114544707636
39.92,0.05618988218274956
40.0,0.05508785377978941
40.08,0.05400755523265876
40.160000000000004,0.05295764225962715
40.24,0.05194573016758068
40.32,0.05097826586563863
40.4,0.05006044818655325
40.480000000000004,0.04919620035357785
40.56,0.04838819576598273
40.64,0.0476379353246635
40.72,0.04694587147276913
40.800000000000004,0.04631157120250955
40.88,0.045733907704007024
40.96,0.04521126832048107
41.04,0.044741765211877046
41.12,0.04432343475475233
41.2,0.04395441229639232
41.28,0.04363307044031619
41.36,0.04335811149668158
41.44,0.04312860793828827
41.52,0.0429439884485994
41.6,0.04280397116865481
41.68,0.04270844974899886
41.76,0.04265734148547722
41.84,0.04265040987354199
41.92,0.042687076102820506
42.0,0.04276623514051975
42.08,0.0428860920046347
42.160000000000004,0.043044032580929405
42.24,0.043236540960725836
42.32,0.04345917193133993
42.4,0.043706583181871234
42.480000000000004,0.043972627304250125
42.56,0.0442504991260199
42.64,0.04453292967519535
42.72,0.044812414500545565
42.800000000000004,0.04508146145722824
42.88,0.045332841646073964
42.96,0.04555982709343389
43.04,0.045756399990947966
43.12,0.04591742077471344
43.2,0.046038745792246934
43.28,0.046117289470320906
43.36,0.04615103037916308
43.44,0.04613896498214035
43.52,0.046081016770472265
43.6,0.04597791156707249
43.68,0.04583103178573501
43.76,0.04564226320613374
43.84,0.04541384734961351
43.92,0.04514825091610497
44.0,0.04484806117698022
44.08,0.04451591300237795
44.160000000000004,0.04415444967256668
44.24,0.04376631613015051
44.32,0.043354180196917044
44.4,0.04292077477342066
44.480000000000004,0.04246895235021299
44.56,0.04200174238602336
44.64,0.04152240225766492
44.72,0.041034453483114686
44.800000000000004,0.04054169661933484
44.88,0.04004820044819716
44.96,0.03955826356914844
45.04,0.03907634909189956
45.12,0.038606995554109194
45.2,0.03815470929112759
45.28,0.037723845106236616
45.36,0.03731848312115267
45.44,0.03694231006380055
45.52,0.03659851295626703
45.6,0.03628969222995659
45.68,0.03601779979240619
45.76,0.035784105618695286
45.84,0.03558919419505273
45.92,0.035432989787477484
46.0,0.03531480724584325
46.08,0.03523342308819694
46.160000000000004,0.03518716012922491
46.24,0.035173978074342506
46.32,0.03519156239593406
46.4,0.035237404471060274
46.480000000000004,0.03530886734195562
46.56,0.03540323343341409
46.64,0.035517732924461205
46.72,0.035649553971320955
46.800000000000004,0.03579583833255258
46.88,0.03595366787740927
46.96,0.03612004872504827
47.04,0.036291900194841686
47.12,0.0364660552705625
47.2,0.03663927792562663
47.28,0.03680830056353608
47.36,0.03696988223292605
47.44,0.03712088548428048
47.52,0.03725836708122765
47.6,0.037379675588820674
47.68,0.03748254740778032
47.76,0.03756519229318401
47.84,0.0376263598624254
47.92,0.037665380012823414
48.0,0.03768217237157449
48.08,0.037677222634605545
48.160000000000004,0.037651526602637875
48.24,0.037606505561846526
48.32,0.03754389907823321
48.4,0.0374656430382788
48.480000000000004,0.03737374172402926
48.56,0.037270142813935
48.64,0.03715662351036347
48.72,0.0370346946569082
48.800000000000004,0.03690552792968821
48.88,0.03676990919934503
48.96,0.03662821918879692
49.04,0.03648044078213556
49.120000000000005,0.03632619089936717
49.2,0.03616477379849871
49.28,0.035995251993768164
49.36,0.03581653062774099
49.44,0.03562745101583854
49.52,0.035426889098144176
49.6,0.035213854604159114
49.68,0.03498758681290692
49.76,0.034747642865076256
49.84,0.03449397468625634
49.92,0.03422699076965103
50.0,0.03394759941351618
50.08,0.033657230575451925
50.160000000000004,0.03335783432852373
50.24,0.03305185497857903
50.32,0.03274218117722105
50.4,0.03243207374605603
50.480000000000004,0.032125074287921634
50.56,0.03182489885815403
50.64,0.0315353218688818
50.72,0.031260055895772784
50.800000000000004,0.03100263308994119
50.88,0.030766293465674492
50.96,0.0305538844950096
51.04,0.030367775303782
51.120000000000005,0.03020978747938445
51.2,0.030081143233767857
51.28,0.02998243057473937
51.36,0.029913584352617158
51.44,0.029873881646737398
51.52,0.02986194995500069
51.6,0.029875787003346144
51.68,0.029912791596891024
51.76,0.029969805644176402
51.84,0.03004316813332064
51.92,0.030128782260994663
52.0,0.030222196978464885
52.08,0.030318703840856234
52.160000000000004,0.030413449209287426
52.24,0.03050156061524702
52.32,0.030578284574605742
52.4,0.030639131510966998
52.480000000000004,0.030680021922865293
52.56,0.030697426720368272
52.64,0.030688493954799164
52.72,0.030651154112397525
52.800000000000004,0.030584196811050207
52.88,0.030487313119560766
52.96,0.030361099718865657
53.04,0.030207023577392418
53.120000000000005,0.03002734849549117
53.2,0.029825027532923237
53.28,0.029603567713548565
53.36,0.029366875275030305
53.44,0.029119090924232507
53.52,0.028864424968685246
53.6,0.028607001800626836
53.68,0.028350722074108506
53.76,0.028099149171246056
53.84,0.02785542438949639
53.92,0.02762221291832716
54.0,0.02740168033790857
54.08,0.02719549727350964
54.160000000000004,0.02700486814716895
54.24,0.026830578798655233
54.32,0.02667305715411017
54.4,0.02653244109336381
54.480000000000004,0.026408648139242107
54.56,0.026301442452896836
54.64,0.02621049572787063
54.72,0.026135439780447196
54.800000000000004,0.02607590978903248
54.88,0.026031578116558002
54.96,0.026002179366441804
55.04,0.025987527724898735
