Frequency,PSD
6.0,0.729919259738589
6.08,0.7323437110517633
6.16,0.7369741287651005
6.24,0.7434073024050953
6.32,0.7511174322373172
6.4,0.7595374194289208
6.48,0.7681480904256432
6.5600000000000005,0.7765631275036328
6.640000000000001,0.7845968422720756
6.72,0.7923025952849896
6.8,0.7999737540620979
6.88,0.8081077451329348
6.96,0.8173448551232494
7.04,0.8284013550498148
7.12,0.8420151051860036
7.2,0.8589089839514396
7.28,0.8797584312205343
7.36,0.9051352713143055
7.44,0.935402166838488
7.5200000000000005,0.9705547448289638
7.6000000000000005,1.0100442496305682
7.68,1.0526455625611235
7.76,1.096445153414227
7.84,1.139001036672636
7.92,1.1776767385724898
8.0,1.2100914965843523
8.08,1.2345823244112273
8.16,1.2505578699013573
8.24,1.2586447205899478
8.32,1.2605767762525533
8.4,1.2588421921656945
8.48,1.2561629936135104
8.56,1.254925244541647
8.64,1.256692799261363
8.72,1.2619208083664268
8.8,1.2699383279356153
8.88,1.279202133260613
8.96,1.2877527902865982
9.040000000000001,1.2937493691616764
9.120000000000001,1.2959382022471582
9.200000000000001,1.2939314357546372
9.28,1.2882270899913417
9.36,1.2799765030117227
9.44,1.270574666915882
9.52,1.2611942211431932
9.6,1.2523939242236448
9.68,1.2439074245725368
9.76,1.2346671412342072
9.84,1.2230551055342405
9.92,1.2073131852449466
10.0,1.1860035525228765
10.08,1.1583974651076239
10.16,1.124691023374303
10.24,1.0859960863054603
10.32,1.0441188015490468
10.4,1.0011967880054513
10.48,0.9592995133926553
10.56,0.9200946095845552
10.64,0.8846493055270896
10.72,0.8533864045143298
10.8,0.826168488831026
10.88,0.8024579039879371
10.96,0.7814983045846198
11.040000000000001,0.7624796506939785
11.120000000000001,0.7446698894787224
11.200000000000001,0.7275116192622901
11.28,0.7106858581733202
11.36,0.6941403693507668
11.44,0.6780742227789794
11.52,0.6628705300449617
11.6,0.6489784983932251
11.68,0.6367616191651382
11.76,0.6263445361344272
11.84,0.6174996543451954
11.92,0.6096107446150774
12.0,0.6017338178201571
12.08,0.5927494254221813
12.16,0.5815732668821425
12.24,0.5673729803253102
12.32,0.5497356584818834
12.4,0.5287450680804372
12.48,0.5049550830217402
12.56,0.4792764251758015
12.64,0.4528160740629053
12.72,0.4267149188649208
12.8,0.4020186892229722
12.88,0.37959636262801766
12.96,0.36009939241326405
13.040000000000001,0.34394336104309375
13.120000000000001,0.3312948569822185
13.200000000000001,0.32205767787930834
13.280000000000001,0.3158663558286184
13.36,0.31210328532922055
13.44,0.3099535792756529
13.52,0.30849987812740143
13.6,0.30684333107669437
13.68,0.3042245452120341
13.76,0.30011545328154643
13.84,0.2942612694431382
13.92,0.2866674030604159
14.0,0.27754263739624574
14.08,0.26722050119487734
14.16,0.2560822586725121
14.24,0.24449842793805882
14.32,0.232795547358029
14.4,0.22124591702624416
14.48,0.21007313446884002
14.56,0.19946539131174476
14.64,0.18958972851881517
14.72,0.18060179090426998
14.8,0.17264657495980887
14.88,0.16584722059419413
14.96,0.16028226664181539
15.040000000000001,0.15595688189726584
15.120000000000001,0.15277845422351605
15.200000000000001,0.15054867134473338
15.280000000000001,0.14898082002881619
15.36,0.1477428360332769
15.44,0.14651667424504358
15.52,0.14505719646285598
15.6,0.14323253510309236
15.68,0.14103368685179835
15.76,0.13855167430615087
15.84,0.13593163316991316
15.92,0.1333201995484161
16.0,0.13082304009544699
16.080000000000002,0.12848364153309189
16.16,0.1262854526744871
16.240000000000002,0.12417112642351692
16.32,0.12206816169234519
16.4,0.11991082252177718
16.48,0.11765258802867669
16.56,0.11526885478637203
16.64,0.11275347947596046
16.72,0.1101136509944731
16.8,0.10736595040553668
16.88,0.10453396869769814
16.96,0.10164626441346718
17.04,0.09873356342667403
17.12,0.09582546304320969
17.2,0.09294824171009675
17.28,0.09012554241490132
17.36,0.08738238028228057
17.44,0.08475080572856733
17.52,0.08227387574183645
17.6,0.08000443250877617
17.68,0.07799689808741074
17.76,0.07629326587095257
17.84,0.07490742829500091
17.92,0.07381354531487497
18.0,0.07294347673525582
18.080000000000002,0.07219547356940634
18.16,0.07145242087951062
18.240000000000002,0.07060455465852807
18.32,0.06957015623140732
18.400000000000002,0.06830881128384451
18.48,0.06682482281721605
18.56,0.06516186874710471
18.64,0.06339246234949175
18.72,0.061606307839470735
18.8,0.059900349379917804
18.88,0.058371127999770595
18.96,0.057108196783221585
19.04,0.056186677023827084
19.12,0.05565777275458947
19.2,0.05553776136395934
19.28,0.05579784608410915
19.36,0.05635847291077474
19.44,0.057091699757134164
19.52,0.05783376834435492
19.6,0.05840743341563971
19.68,0.0586505511019653
19.76,0.058444915339981376
19.84,0.05773834931994502
19.92,0.05655419449719952
20.0,0.054985445400945965
20.080000000000002,0.053174915783667315
20.16,0.05128657433760299
20.240000000000002,0.049475245830333026
20.32,0.047861606886679633
20.400000000000002,0.04651712793616207
20.48,0.04546038024110824
20.56,0.04466319341298246
20.64,0.04406338642869086
20.72,0.04358039358635214
20.8,0.043130675051182045
20.88,0.04264074088124913
20.96,0.04205649265551597
21.04,0.041348276122673985
21.12,0.040511629091087076
21.2,0.039564286467253414
21.28,0.0385405195979676
21.36,0.03748418711756191
21.44,0.03644183916073196
21.52,0.035456868980259945
21.6,0.03456520937399527
21.68,0.03379263020251681
21.76,0.03315344074637454
21.84,0.03265035128617418
21.92,0.03227532708162956
22.0,0.03201137093343438
22.080000000000002,0.031835208720995344
22.16,0.03172076743234527
22.240000000000002,0.03164310978707881
22.32,0.03158217037685311
22.400000000000002,0.03152535844971543
22.48,0.031468051881787126
22.56,0.03141138432367652
22.64,0.0313575509334322
22.72,0.03130391084759063
22.8,0.03123801214559519
22.88,0.031135829639068274
22.96,0.030964720872431656
23.04,0.03069101395454002
23.12,0.030290303866703762
23.2,0.029757215163937936
23.28,0.02911120134412886
23.36,0.028396049641028865
23.44,0.02767274884805417
23.52,0.02700748810146221
23.6,0.02645799980789311
23.68,0.026061780364737455
23.76,0.025828944320396997
23.84,0.02574101730319984
23.92,0.025755423469721112
24.0,0.02581423184643924
24.080000000000002,0.025855095858458677
24.16,0.025822220936046025
24.240000000000002,0.025675478912509462
24.32,0.0253963036938128
24.400000000000002,0.02498964073987181
24.48,0.02448189836416513
24.560000000000002,0.023915472749573348
24.64,0.023340900275663472
24.72,0.02280797195582997
24.8,0.022357227662723255
24.88,0.022013180848446428
24.96,0.021780447330980023
25.04,0.02164364356439504
25.12,0.02157140470637092
25.2,0.021524098877147048
25.28,0.021463861257920158
25.36,0.021364704175133413
25.44,0.021220056820358324
25.52,0.021045465824190254
25.6,0.02087539453371753
25.68,0.020754779130766288
25.76,0.02072763744177273
25.84,0.020825948673416146
25.92,0.021061849310802416
26.0,0.021424981465250396
26.080000000000002,0.021885070262747785
26.16,0.02239819612483077
26.240000000000002,0.02291437157085135
26.32,0.023384181676646115
26.400000000000002,0.023763208215147477
26.48,0.02401420639745699
26.560000000000002,0.02410795058654698
26.64,0.024023933154127233
26.72,0.023751676333494672
26.8,0.023292615858602695
26.88,0.022661785969015354
26.96,0.021888226854871188
27.04,0.021013252740516627
27.12,0.020086326026031755
27.2,0.019159018747433452
27.28,0.01827815320489002
27.36,0.017479530483996447
27.44,0.016783606880233705
27.52,0.016194073223540283
27.6,0.015699617639105212
27.68,0.015278377623795187
27.76,0.01490394120698942
27.84,0.014551453612101431
27.92,0.014202525083242597
28.0,0.01384814059026537
28.080000000000002,0.013489416782564073
28.16,0.013136572187641207
28.240000000000002,0.012806705224304094
28.32,0.0125209137097132
28.400000000000002,0.012301087979658377
28.48,0.012166559610241916
28.560000000000002,0.012130807744894688
28.64,0.012198596043654048
28.72,0.01236409677629597
28.8,0.012610582634566856
28.88,0.012912030671337754
28.96,0.013236524056862977
29.04,0.01355082507508442
29.12,0.013825146057489614
29.2,0.014037118077008182
29.28,0.014174254411042147
29.36,0.01423467714031693
29.44,0.014226300985165728
29.52,0.014164883796936516
29.6,0.014071337714785071
29.68,0.013968570542835578
29.76,0.013878064118276094
29.84,0.013816492537988109
29.92,0.013792890399942246
30.0,0.013807034131652456
30.080000000000002,0.013849622662245212
30.16,0.013904471329609343
30.240000000000002,0.013952363526926189
30.32,0.013975658254076302
30.400000000000002,0.013962458094117485
30.48,0.013909227345808954
30.560000000000002,0.013821184856606626
30.64,0.013710424036175398
30.72,0.01359232884056513
30.8,0.013481285218590672
30.88,0.013386832866874206
30.96,0.01331124248518134
31.04,0.013249088536744953
31.12,0.01318882513474797
31.2,0.013115817429126347
31.28,0.013015901242608924
31.36,0.01287846594474068
31.44,0.012698304218137522
31.52,0.01247594652386878
31.6,0.012216708464457219
31.68,0.011929033590664313
31.76,0.01162280337087383
31.84,0.01130812209085615
31.92,0.010994774416119964
32.0,0.01069223460267589
32.08,0.010409887641398266
32.160000000000004,0.010157058964626736
32.24,0.009942546507405278
32.32,0.00977357456692908
32.4,0.009654375459658453
32.480000000000004,0.009584852224303143
32.56,0.009559872839085177
32.64,0.009569620213365548
32.72,0.009601088103520575
32.8,0.009640392300072211
32.88,0.009675242610100651
32.96,0.009696850419279288
33.04,0.009700770110278693
33.12,0.00968658725420648
33.2,0.009656776847462368
33.28,0.009615278192426888
33.36,0.009566294459623533
33.44,0.009513586278706493
33.52,0.009460237930870712
33.6,0.00940867513027259
33.68,0.009360671839963471
33.76,0.009317177324855756
33.84,0.009277950472250867
33.92,0.009241134266871414
34.0,0.00920299489618349
34.08,0.009158065442832786
34.160000000000004,0.009099860091135894
34.24,0.009022159290523149
34.32,0.00892064026833525
34.4,0.008794418849802907
34.480000000000004,0.008646983371024018
34.56,0.008486117581950989
34.64,0.008322719049183703
34.72,0.008168811201225786
34.800000000000004,0.008035349316846565
34.88,0.007930488145185476
34.96,0.00785877216687713
35.04,0.007821321223132952
35.12,0.007816693978459247
35.2,0.007841895670138304
35.28,0.007893040865065575
35.36,0.007965444992801603
35.44,0.008053259881763936
35.52,0.008149024063073176
35.6,0.008243558813977855
35.68,0.008326494530029078
35.76,0.008387437752956967
35.84,0.008417509194438615
35.92,0.008410807504748534
36.0,0.008365342045376508
36.08,0.008283128310260296
36.160000000000004,0.008169397506619408
36.24,0.008031151161500067
36.32,0.00787549989074555
36.4,0.00770829082675133
36.480000000000004,0.007533425017021588
36.56,0.007353028553541691
36.64,0.007168354319876696
36.72,0.006981058195986677
36.800000000000004,0.006794392590201478
36.88,0.006613913573948011
36.96,0.006447469129803603
37.04,0.00630445393863486
37.12,0.006194509558459791
37.2,0.006125971691795407
37.28,0.006104403682039345
37.36,0.006131515791486356
37.44,0.006204673546583326
37.52,0.006317070999436653
37.6,0.006458514043481047
37.68,0.006616652212833693
37.76,0.006778435929253167
37.84,0.006931569245011957
37.92,0.007065770091852556
38.0,0.007173721550897424
38.08,0.007251670948633637
38.160000000000004,0.007299681025407322
38.24,0.0073215427150033745
38.32,0.007324328098277568
38.4,0.007317526587890736
38.480000000000004,0.007311714290293756
38.56,0.007316792521078733
38.64,0.007339994224220627
38.72,0.007384041176438438
38.800000000000004,0.007445947698813213
38.88,0.007516921774733587
38.96,0.007583582473160634
39.04,0.007630349048306196
39.12,0.007642488749120088
39.2,0.0076090815239638135
39.28,0.007525165700918435
39.36,0.0073925707213005724
39.44,0.007219328723738192
39.52,0.007017943683840774
39.6,0.006803055088061869
39.68,0.006589096229331019
39.76,0.006388428692904388
39.84,0.006210208865364245
39.92,0.006060004219391748
40.0,0.005940001888569153
40.08,0.005849572513987548
40.160000000000004,0.005785959945583084
40.24,0.005744930256224401
40.32,0.00572129804939583
40.4,0.005709330703898993
40.480000000000004,0.005703096837096326
40.56,0.005696858867358408
40.64,0.005685593973012904
40.72,0.005665653924789408
40.800000000000004,0.005635457767817487
40.88,0.005595999592092555
40.96,0.005550911443604381
41.04,0.005505896861300165
41.12,0.00546754015036118
41.2,0.005441733979888246
41.28,0.005432148564892407
41.36,0.0054391978972986536
41.44,0.005459813949205514
41.52,0.005488073169335852
41.6,0.0055164439802179305
41.68,0.005537254331101811
41.76,0.005543974685310268
41.84,0.005532053497463627
41.92,0.005499246193620896
42.0,0.005445548074610104
42.08,0.005372915101898294
42.160000000000004,0.005284931162734808
42.24,0.005186499444604626
42.32,0.00508355505603246
42.4,0.004982752970266178
42.480000000000004,0.004891084885048533
42.56,0.004815402881227077
42.64,0.004761855436909358
42.72,0.004735262526706966
42.800000000000004,0.004738475015625362
42.88,0.004771787624065318
42.96,0.004832505104410379
43.04,0.004914785357974165
43.12,0.0050098798890310355
43.2,0.005106843914248248
43.28,0.005193694813225109
43.36,0.005258879566130754
43.44,0.005292807012099068
43.52,0.005289149009579535
43.6,0.00524564133891272
43.68,0.005164220154264534
43.76,0.005050485522414142
43.84,0.004912644302570361
43.92,0.004760201479291457
44.0,0.00460270638417051
44.08,0.004448807595637066
44.160000000000004,0.004305746680686984
44.24,0.004179269241496174
44.32,0.004073804361277031
44.4,0.003992703350650167
44.480000000000004,0.003938352487659813
44.56,0.0039120666630967655
44.64,0.003913790979776619
44.72,0.003941737963322335
44.800000000000004,0.003992134486147411
44.88,0.004059234808275595
44.96,0.004135688170164406
45.04,0.004213258004654003
45.12,0.0042838017328618305
45.2,0.00434035358503445
45.28,0.0043781173585765885
45.36,0.0043951759420153775
45.44,0.004392762076656357
45.52,0.004375008600851333
45.6,0.0043481962293096975
45.68,0.00431962188378866
45.76,0.0042962935327429605
45.84,0.004283695495909193
45.92,0.00428485296930705
46.0,0.004299865340062527
46.08,0.004325994038711415
46.160000000000004,0.004358299469575063
46.24,0.004390730598513169
46.32,0.0044174816476173035
46.4,0.004434350499646729
46.480000000000004,0.004439785617007573
46.56,0.004435326740002011
46.64,0.004425255967361163
46.72,0.0044154750743821
46.800000000000004,0.004411862991332491
46.88,0.0044185616501886665
46.96,0.004436705294909556
47.04,0.004464002819598882
47.12,0.0044953249131856905
47.2,0.004524121966121199
47.28,0.004544222721129653
47.36,0.004551441777195181
47.44,0.004544503133748724
47.52,0.004525035719780066
47.6,0.004496718176576972
47.68,0.004463921891655186
47.76,0.0044303276883851835
47.84,0.0043979418630289615
47.92,0.004366753032367188
48.0,0.00433504043692249
48.08,0.004300156565339337
48.160000000000004,0.0042595146927813625
48.24,0.00421151665749556
48.32,0.004156222773327176
48.4,0.004095651198931785
48.480000000000004,0.004033671070952215
48.56,0.003975516496042362
48.64,0.0039270026830464
48.72,0.0038935737706095007
48.800000000000004,0.003879347261091723
48.88,0.0038863296501857186
48.96,0.003913952689998043
49.04,0.003959021158379053
49.120000000000005,0.004016083484573614
49.2,0.004078154802517504
49.28,0.004137656657311872
49.36,0.004187402493567045
49.44,0.004221459441872185
49.52,0.004235752607248209
49.6,0.0042283383597599075
49.68,0.0041993434938817145
49.76,0.004150631935399118
49.84,0.004085306753184598
49.92,0.004007174073268581
50.0,0.003920284226882655
50.08,0.003828627319194724
50.160000000000004,0.0037360048829705207
50.24,0.003646041136045556
50.32,0.003562253242211013
50.4,0.0034880831112826284
50.480000000000004,0.003426808657745802
50.56,0.003381295383295471
50.64,0.0033536079403761326
50.72,0.0033445615119143644
50.800000000000004,0.0033533396710632747
50.88,0.003377323702263048
50.96,0.0034122532516392065
51.04,0.003452761054344722
51.120000000000005,0.0034932045809071832
51.2,0.003528590633225144
51.28,0.0035553123564614417
51.36,0.0035714454450907866
51.44,0.003576496953124359
51.52,0.003570720771055441
51.6,0.003554312365651041
51.68,0.0035268692754979007
51.76,0.0034874012799145267
51.84,0.0034349292591006123
51.92,0.0033694339070806587
52.0,0.003292735509104871
52.08,0.0032088893928754365
52.160000000000004,0.0031238660920042925
52.24,0.0030445651762115757
52.32,0.0029774641444210888
52.4,0.002927327858181488
52.480000000000004,0.002896362750892823
52.56,0.002884027259887744
52.64,0.0028874850577995104
52.72,0.0029024966286508858
52.800000000000004,0.0029244464638853926
52.88,0.0029492139829047706
52.96,0.0029736933960264333
53.04,0.002995904995645726
53.120000000000005,0.003014767865809438
53.2,0.0030296844526438594
53.28,0.003040105732448938
53.36,0.0030452101860511515
53.44,0.0030437654959309963
53.52,0.003034178348634035
53.6,0.00301469595358473
53.68,0.0029837075627809836
53.76,0.0029400950548794233
53.84,0.002883582719503384
53.92,0.002815028465366844
54.0,0.00273658605529629
54.08,0.0026516660619003768
54.160000000000004,0.0025646481546144845
54.24,0.0024803537106846693
54.32,0.0024033622164954796
54.4,0.002337319443240719
54.480000000000004,0.002284409405552614
54.56,0.0022451280203006525
54.64,0.002218410460823033
54.72,0.002202057026967434
54.800000000000004,0.0021933168613643434
54.88,0.002189460509584334
54.96,0.0021882109009003672
55.04,0.002187985431494413
