Frequency,PSD
6.057142857142857,0.31522098564438766
6.171428571428571,0.3216763530019576
6.285714285714286,0.3346916455647255
6.3999999999999995,0.3532829058624264
6.514285714285714,0.3745027538696777
6.628571428571428,0.39461259206726695
6.742857142857143,0.4120194001519267
6.857142857142857,0.4292452202587304
6.9714285714285715,0.45167895531908925
7.085714285714285,0.4840199210161425
7.2,0.527104838735968
7.314285714285714,0.5766192183963393
7.428571428571428,0.6238898708881484
7.542857142857143,0.659239180908877
7.657142857142857,0.6779262346654878
7.771428571428571,0.6859763064895213
7.885714285714285,0.7010830755555103
8.0,0.7457322101721118
8.114285714285714,0.8349897077500321
8.228571428571428,0.9658373693321829
8.342857142857143,1.1149254779190707
8.457142857142857,1.2467823136303882
8.571428571428571,1.3281314625055243
8.685714285714285,1.3408479196611531
8.799999999999999,1.2880461408941488
8.914285714285715,1.1916564409200494
9.028571428571428,1.0825799673863576
9.142857142857142,0.9873814947945735
9.257142857142856,0.9186942524779869
9.371428571428572,0.8752486695123602
9.485714285714286,0.8499564860225516
9.6,0.8381162753685829
9.714285714285714,0.8394588630536441
9.828571428571427,0.8542617228082727
9.942857142857143,0.8780690574877557
10.057142857142857,0.8998800243344329
10.17142857142857,0.9061573194653566
10.285714285714285,0.8881005446272114
10.4,0.8458606361184915
10.514285714285714,0.7861600117269842
10.628571428571428,0.7168429184421893
10.742857142857142,0.6439622265607508
10.857142857142858,0.5719916926601549
10.971428571428572,0.5040422572907681
11.085714285714285,0.44127029844962085
11.2,0.38329927317177637
11.314285714285713,0.32981776702014126
11.428571428571429,0.28137158696467424
11.542857142857143,0.2385762468700879
11.657142857142857,0.20112031619162532
11.77142857142857,0.16786990475694585
11.885714285714286,0.1379288470769548
12.0,0.11163392863713906
12.114285714285714,0.0906312214066092
12.228571428571428,0.0769467610429384
12.342857142857142,0.07166887780897174
12.457142857142857,0.07398008948598656
12.571428571428571,0.0809993316528517
12.685714285714285,0.08863445493444455
12.799999999999999,0.09324531480823714
12.914285714285715,0.09325563832311815
13.028571428571428,0.08960194408191922
13.142857142857142,0.0846762629673821
13.257142857142856,0.08060348300503688
13.371428571428572,0.0781157560469256
13.485714285714286,0.07664456502891268
13.6,0.07526709441775364
13.714285714285714,0.07359762420832588
13.828571428571427,0.071903122956954
13.942857142857143,0.07048708118434319
14.057142857142857,0.06911457569442367
14.17142857142857,0.06718912910850443
14.285714285714285,0.06451269656564235
14.4,0.06174580673941298
14.514285714285714,0.060002380371614115
14.628571428571428,0.05998426291150812
14.742857142857142,0.061537105514867595
14.857142857142856,0.06398636421968476
14.971428571428572,0.0667642105518699
15.085714285714285,0.06965193872610226
15.2,0.0725461459248616
15.314285714285713,0.07519553486948967
15.428571428571429,0.07725684962943155
15.542857142857143,0.07857645441190782
15.657142857142857,0.07936798277908823
15.77142857142857,0.08006780602533947
15.885714285714284,0.0809518909005923
16.0,0.08185833920233516
16.114285714285714,0.08233696144163521
16.228571428571428,0.08219005491567163
16.34285714285714,0.08194617552755926
16.457142857142856,0.08272382384931663
16.57142857142857,0.08540660223665163
16.685714285714287,0.08976740962526404
16.8,0.0943930963925625
16.914285714285715,0.09758423187993032
17.02857142857143,0.09850136695873446
17.142857142857142,0.09766600717184354
17.257142857142856,0.09651767200716826
17.37142857142857,0.09636982681425513
17.485714285714284,0.09744479201401607
17.599999999999998,0.09869280262582544
17.714285714285715,0.09862325460510868
17.82857142857143,0.09649922791919108
17.942857142857143,0.09282823084415162
18.057142857142857,0.08875348296715312
18.17142857142857,0.08503934818499258
18.285714285714285,0.08162431255834954
18.4,0.07799417106559083
18.514285714285712,0.07385538668205954
18.628571428571426,0.06949968987261831
18.742857142857144,0.0656663423845535
18.857142857142858,0.0631181504117558
18.97142857142857,0.06227655345260443
19.085714285714285,0.06309458799464814
19.2,0.065100023245163
19.314285714285713,0.06749307750627342
19.428571428571427,0.0693258600610765
19.54285714285714,0.06985394088142112
19.657142857142855,0.0689823381991219
19.771428571428572,0.06748730618453119
19.885714285714286,0.06670370391390676
20.0,0.06775226423395768
20.114285714285714,0.0708235257609545
20.228571428571428,0.07505629801154715
20.34285714285714,0.07907755851507638
20.457142857142856,0.08174106232506174
20.57142857142857,0.08249163391161601
20.685714285714287,0.08118655421972988
20.8,0.07775130071760966
20.914285714285715,0.07217014477149664
21.02857142857143,0.06484941812519968
21.142857142857142,0.056875986947047485
21.257142857142856,0.049749814883996775
21.37142857142857,0.04470865567795954
21.485714285714284,0.04214787882967725
21.599999999999998,0.04152275435245697
21.714285714285715,0.04173775045482973
21.82857142857143,0.04173708109571316
21.942857142857143,0.040945527142299154
22.057142857142857,0.03935566884670027
22.17142857142857,0.037324225293732353
22.285714285714285,0.03530768852757556
22.4,0.033690152926243624
22.514285714285712,0.03269129879668189
22.628571428571426,0.032320203339334636
22.742857142857144,0.03240779502044478
22.857142857142858,0.032713936571177146
22.97142857142857,0.033007931174003156
23.085714285714285,0.03306706328006721
23.2,0.03268696051674405
23.314285714285713,0.031788889253766786
23.428571428571427,0.030523066316284483
23.54285714285714,0.02920202672944799
23.657142857142855,0.028085042121761897
23.771428571428572,0.02722047993485452
23.885714285714286,0.02648891932710995
24.0,0.02576872196890697
24.114285714285714,0.025038179829791077
24.228571428571428,0.02433679021735446
24.34285714285714,0.023678294708628027
24.457142857142856,0.023037198643772086
24.57142857142857,0.02240655199270552
24.685714285714283,0.021828150845306024
24.8,0.02135911328236543
24.914285714285715,0.021057847709780312
25.02857142857143,0.021047262221133605
25.142857142857142,0.021552539925057155
25.257142857142856,0.022762693599316753
25.37142857142857,0.024570389281355635
25.485714285714284,0.026475845848780714
25.599999999999998,0.027846649915631013
25.71428571428571,0.028338371623787755
25.82857142857143,0.028068229723217927
25.942857142857143,0.02739387271377907
26.057142857142857,0.026571987592667205
26.17142857142857,0.02565241654576528
26.285714285714285,0.024656263397449377
26.4,0.023778589318108268
26.514285714285712,0.02335917261472064
26.628571428571426,0.023631854072176595
26.742857142857144,0.02450046744092398
26.857142857142858,0.025558366033333075
26.97142857142857,0.026332157067605735
27.085714285714285,0.026556524393550385
27.2,0.026304535507123042
27.314285714285713,0.025908858291792142
27.428571428571427,0.025720113356199874
27.54285714285714,0.025853006568380542
27.657142857142855,0.026111446972357302
27.771428571428572,0.026162657155378143
27.885714285714286,0.025807140603209582
28.0,0.025100100165810737
28.114285714285714,0.02424385984747017
28.228571428571428,0.02340438107224915
28.34285714285714,0.022637963776669857
28.457142857142856,0.02194736309860918
28.57142857142857,0.021355304275712875
28.685714285714283,0.020917031279076737
28.8,0.02069183334151235
28.914285714285715,0.020723729983233713
29.02857142857143,0.021037747972298435
29.142857142857142,0.021616558340615315
29.257142857142856,0.022342851944759726
29.37142857142857,0.022963178286407315
29.485714285714284,0.023156713948581036
29.599999999999998,0.02270876973316551
29.71428571428571,0.02167013488028771
29.82857142857143,0.0203700606829231
29.942857142857143,0.019257290115721887
30.057142857142857,0.01866154798736814
30.17142857142857,0.018618882103656552
30.285714285714285,0.01887815985376614
30.4,0.019101844639527833
30.514285714285712,0.019124686619406077
30.628571428571426,0.0190608347658114
30.74285714285714,0.01916394485139613
30.857142857142858,0.01956926785550726
30.97142857142857,0.020153860268675737
31.085714285714285,0.020627675586121826
31.2,0.020753115293481547
31.314285714285713,0.020498436066364305
31.428571428571427,0.02001823890017789
31.54285714285714,0.019507992547026898
31.657142857142855,0.019064188043050153
31.77142857142857,0.018651901495074133
31.885714285714286,0.018181725062214448
32.0,0.01761042727110255
32.114285714285714,0.016973802410543193
32.22857142857143,0.01634043422592052
32.34285714285714,0.015754358219640937
32.457142857142856,0.01522243255300823
32.57142857142857,0.014734604811492826
32.68571428571428,0.014285737426700619
32.8,0.013893787210667467
32.91428571428571,0.01360649865913278
33.028571428571425,0.013475602094681549
33.14285714285714,0.013514738203294492
33.25714285714285,0.013693831785119863
33.371428571428574,0.013976996990018342
33.48571428571429,0.01434239879777014
33.6,0.014746806621929532
33.714285714285715,0.01508993421672592
33.82857142857143,0.015257745897155391
33.94285714285714,0.015232405027911875
34.05714285714286,0.015160558586816603
34.17142857142857,0.015293932255435034
34.285714285714285,0.015833474310505153
34.4,0.01679132022074632
34.51428571428571,0.017963128759729236
34.628571428571426,0.019020533458032222
34.74285714285714,0.019662246334636663
34.857142857142854,0.01973715726110502
34.97142857142857,0.01927723271568476
35.08571428571428,0.018437675692601033
35.199999999999996,0.017399014375648877
35.31428571428572,0.016299183362286637
35.42857142857143,0.015228515829802367
35.542857142857144,0.014270360725599037
35.65714285714286,0.013538233454394815
35.77142857142857,0.013163004580776775
35.885714285714286,0.013223230388622925
36.0,0.013666529310432862
36.114285714285714,0.014293901434168069
36.22857142857143,0.014841385185049943
36.34285714285714,0.015117674556079846
36.457142857142856,0.015107701917855852
36.57142857142857,0.01497471626338514
36.68571428571428,0.014960263010492818
36.8,0.015235679476484982
36.91428571428571,0.015783436857098352
37.028571428571425,0.016384569299750913
37.14285714285714,0.016736045098884822
37.25714285714285,0.016626096612179033
37.371428571428574,0.016042977649282256
37.48571428571429,0.015151294020842167
37.6,0.014182722008135865
37.714285714285715,0.013337888277407624
37.82857142857143,0.01274802352663747
37.94285714285714,0.012470841150910985
38.05714285714286,0.01248040055353043
38.17142857142857,0.012660796705099115
38.285714285714285,0.012849208700943788
38.4,0.012928766197778191
38.51428571428571,0.012895363347544712
38.628571428571426,0.012830552820018281
38.74285714285714,0.012812765647555327
38.857142857142854,0.012860616526889503
38.97142857142857,0.012946375940463882
39.08571428571428,0.0130322316870562
39.199999999999996,0.013079515547850444
39.31428571428571,0.01304177831804404
39.42857142857143,0.012877528198034381
39.542857142857144,0.012580285582808971
39.65714285714286,0.012192038336846445
39.77142857142857,0.011790516852521256
39.885714285714286,0.011472509558900798
40.0,0.011335942845258384
40.114285714285714,0.011435822438830713
40.22857142857143,0.011728710699965512
40.34285714285714,0.012081371075368025
40.457142857142856,0.012378266080117462
40.57142857142857,0.012630832384241794
40.68571428571428,0.01294878438787053
40.8,0.013379174748307588
40.91428571428571,0.013791403381563965
41.028571428571425,0.013954822223647342
41.14285714285714,0.013739965540169301
41.25714285714285,0.013236412573747455
41.371428571428574,0.012679878130206362
41.48571428571429,0.012277556054170224
41.6,0.012086612630701325
41.714285714285715,0.012014133234102728
41.82857142857143,0.011909581698501712
41.94285714285714,0.011684353567001034
42.05714285714286,0.011383854408178629
42.17142857142857,0.011154241802248971
42.285714285714285,0.011121917587450073
42.4,0.011290338217875399
42.51428571428571,0.01154861437874237
42.628571428571426,0.01177196755021585
42.74285714285714,0.011902722502319857
42.857142857142854,0.011939336153276438
42.97142857142857,0.011878772941820602
43.08571428571428,0.01170541906952437
43.199999999999996,0.011441115662133206
43.31428571428571,0.011177018448420985
43.42857142857143,0.01102801494864419
43.542857142857144,0.01105319977720546
43.65714285714286,0.01122516516181642
43.77142857142857,0.011458198118444137
43.885714285714286,0.011640329941955171
44.0,0.011651666553730677
44.114285714285714,0.011407491596120785
44.22857142857143,0.010925726173308364
44.34285714285714,0.010344847907922384
44.457142857142856,0.009844153826513186
44.57142857142857,0.00952448992406807
44.68571428571428,0.009354213304873306
44.8,0.009219604468301962
44.91428571428571,0.009026288411242664
45.028571428571425,0.008769591740521181
45.14285714285714,0.008532638200077807
45.25714285714285,0.00842960776252431
45.37142857142857,0.00854097384688356
45.48571428571429,0.008877604286375811
45.6,0.00938353677721667
45.714285714285715,0.009966081318689295
45.82857142857143,0.01053116105633191
45.94285714285714,0.011003574236751662
46.05714285714286,0.011331815431413914
46.17142857142857,0.011496832887671138
46.285714285714285,0.011529904745616144
46.4,0.011509504618215434
46.51428571428571,0.011511146249686785
46.628571428571426,0.01154228668283655
46.74285714285714,0.011532056773955588
46.857142857142854,0.011396526110067317
46.97142857142857,0.011113280650387858
47.08571428571428,0.010728562436276741
47.199999999999996,0.010305978295126018
47.31428571428571,0.009892845334913058
47.42857142857143,0.009538776751303036
47.542857142857144,0.009316569151021204
47.65714285714286,0.009289235450065858
47.77142857142857,0.009445125135847799
47.885714285714286,0.009679538612351136
48.0,0.009860196490143656
48.114285714285714,0.009918545750224736
48.22857142857143,0.009874733435399345
48.34285714285714,0.009781610917716173
48.457142857142856,0.009666777896395726
48.57142857142857,0.009536220222007574
48.68571428571428,0.009408070998403822
48.8,0.009314613030527535
48.91428571428571,0.009282139207935438
49.028571428571425,0.009357997288695371
49.14285714285714,0.009732620847664955
49.25714285714285,0.010962587855231784
49.37142857142857,0.014253098115173734
49.48571428571429,0.021565923926336102
49.6,0.0349978528116544
49.714285714285715,0.05500089111220527
49.82857142857143,0.07823785395592672
49.94285714285714,0.09737884949242634
50.05714285714286,0.10451612625207682
50.17142857142857,0.09636120432057681
50.285714285714285,0.07667102518679994
50.4,0.05351150556535358
50.51428571428571,0.03401126581393997
50.628571428571426,0.021151765705109397
50.74285714285714,0.014218271114479542
50.857142857142854,0.011061870050060778
50.97142857142857,0.00983891379843097
51.08571428571428,0.009498365859809918
51.199999999999996,0.009546228012972165
51.31428571428571,0.009735163270740251
51.42857142857142,0.009925637956643592
51.542857142857144,0.01006439202986546
51.65714285714286,0.010167450631939363
51.77142857142857,0.010266729609817546
51.885714285714286,0.01035556642576447
52.0,0.010382338701164392
52.114285714285714,0.010293253263898313
52.22857142857143,0.010075770172667451
52.34285714285714,0.009763353122905131
52.457142857142856,0.009412406275079662
52.57142857142857,0.009082824300794136
52.68571428571428,0.008828846474352036
52.8,0.008688712166000253
52.91428571428571,0.008673677229380741
53.028571428571425,0.008766957066559517
53.14285714285714,0.00893364799361053
53.25714285714285,0.009134194103085809
53.37142857142857,0.009336270389993613
53.48571428571429,0.009521392392840063
53.6,0.009681318874949992
53.714285714285715,0.009803029325827755
53.82857142857143,0.009851242543983934
53.94285714285714,0.009768954238254923
54.05714285714286,0.00951157774582287
54.17142857142857,0.00909535472949147
54.285714285714285,0.008609915934059749
54.4,0.0081704471300932
54.51428571428571,0.007847547882061767
54.628571428571426,0.007635847895502878
54.74285714285714,0.007481784899043519
54.857142857142854,0.007339250232885363
54.97142857142857,0.007206928312021399
55.08571428571428,0.007122305572185689
