Frequency,PSD
6.0,0.46451652536222354
6.08,0.4645464672720579
6.16,0.46460878806051453
6.24,0.4647083043026401
6.32,0.46485209130221833
6.4,0.4650492878602349
6.48,0.46531081386621925
6.5600000000000005,0.4656489894169999
6.640000000000001,0.46607704945010126
6.72,0.4666085565343494
6.8,0.4672567255096977
6.88,0.46803368565399356
6.96,0.4689497172303763
7.04,0.4700125078425663
7.12,0.4712264784179749
7.2,0.47259222773098675
7.28,0.4741061377051273
7.36,0.47576016959573464
7.44,0.47754186463980386
7.5200000000000005,0.4794345436427343
7.6000000000000005,0.48141768052487943
7.68,0.48346740756783024
7.76,0.4855570973740375
7.84,0.487657960345906
7.92,0.4897395980406916
8.0,0.49177046236692323
8.08,0.49371818751817387
8.16,0.49554978404128197
8.24,0.49723170991091187
8.32,0.4987298587673392
8.4,0.5000095272108108
8.48,0.5010354380933326
8.56,0.5017719025906684
8.64,0.5021831989257621
8.72,0.5022342296093679
8.8,0.5018914929308337
8.88,0.5011243703897843
8.96,0.49990669307082825
9.040000000000001,0.4982185106016831
9.120000000000001,0.49604795056020107
9.200000000000001,0.49339302809104096
9.28,0.49026324851648817
9.36,0.4866808423290653
9.44,0.48268148330535954
9.52,0.47831436633144375
9.6,0.4736415602233376
9.68,0.46873659945101126
9.76,0.46368233334472686
9.84,0.4585681075805281
9.92,0.45348640581406596
10.0,0.4485291247913803
10.08,0.44378369025935294
10.16,0.43932924061260925
10.24,0.4352331087024237
10.32,0.4315478191474408
10.4,0.42830878968896813
10.48,0.42553288271169387
10.56,0.4232179001303121
10.64,0.42134305533015304
10.72,0.41987039411684074
10.8,0.41874707716673626
10.88,0.41790838353534143
10.96,0.4172812520730654
11.040000000000001,0.4167881479720682
11.120000000000001,0.41635102692438697
11.200000000000001,0.41589517013142613
11.28,0.4153526790869478
11.36,0.4146654479564876
11.44,0.4137874708478221
11.52,0.4126863879760837
11.6,0.411344224968053
11.68,0.4097573295831354
11.76,0.4079355565035441
11.84,0.40590079068067114
11.92,0.4036849309056647
12.0,0.4013274765644701
12.08,0.3988728715910839
12.16,0.39636776089707276
12.24,0.39385830712025066
12.32,0.39138770092505426
12.4,0.38899397804178326
12.48,0.3867082325073713
12.56,0.38455328978208525
12.64,0.3825428769436731
12.72,0.38068130111412024
12.8,0.37896362252251603
12.88,0.3773762858397634
12.96,0.3758981532272229
13.040000000000001,0.37450186548455194
13.120000000000001,0.3731554443394924
13.200000000000001,0.37182403988645424
13.280000000000001,0.37047172301317705
13.36,0.3690632238030999
13.44,0.36756552359343275
13.52,0.3659492205083247
13.6,0.364189605369288
13.68,0.36226740596297247
13.76,0.3601691813477569
13.84,0.3578873724937588
13.92,0.3554200391652853
14.0,0.35277033364400223
14.08,0.3499457779148927
14.16,0.34695742093545556
14.24,0.3438189557623621
14.32,0.3405458724438136
14.4,0.33715471220109017
14.48,0.3336624726509261
14.56,0.3300861943063319
14.64,0.32644273731982804
14.72,0.3227487365082437
14.8,0.31902070413423766
14.88,0.3152752354261057
14.96,0.3115292626350796
15.040000000000001,0.3078003002215774
15.120000000000001,0.30410662657322446
15.200000000000001,0.3004673559405144
15.280000000000001,0.2969023669792526
15.36,0.29343206999194554
15.44,0.2900770120367999
15.52,0.28685733586271045
15.6,0.28379212359802974
15.68,0.2808986679976819
15.76,0.27819172192272396
15.84,0.2756827800859313
15.92,0.27337944586572954
16.0,0.27128493048240004
16.080000000000002,0.269397722693114
16.16,0.2677114552973339
16.240000000000002,0.26621498121180304
16.32,0.2648926577968057
16.4,0.26372482458359936
16.48,0.26268844754482334
16.56,0.2617578933639608
16.64,0.26090579036876144
16.72,0.26010392921613507
16.8,0.25932415611364923
16.88,0.25853921415368725
16.96,0.2577234938291455
17.04,0.2568536614400604
17.12,0.2559091432280135
17.2,0.25487245298141725
17.28,0.2537293608410428
17.36,0.2524689104605966
17.44,0.2510832999960828
17.52,0.2495676491827953
17.6,0.24791967971127132
17.68,0.2461393390618921
17.76,0.24422839884907896
17.84,0.2421900576134688
17.92,0.24002857503140956
18.0,0.23774895991718398
18.080000000000002,0.23535672848345407
18.16,0.232857742480138
18.240000000000002,0.23025812949638733
18.32,0.2275642803815921
18.400000000000002,0.22478291194736225
18.48,0.2219211773807231
18.56,0.2189868026152712
18.64,0.2159882246684733
18.72,0.21293470791857722
18.8,0.20983641654242746
18.88,0.2067044257359984
18.96,0.20355066054621104
19.04,0.20038775860942884
19.12,0.19722886111535418
19.2,0.19408734409907077
19.28,0.1909765089017776
19.36,0.18790925560249525
19.44,0.18489776583983225
19.52,0.18195322137639447
19.6,0.17908558194587615
19.68,0.17630344059269024
19.76,0.17361396736802548
19.84,0.17102294361144854
19.92,0.16853488000120537
20.0,0.16615320303589165
20.080000000000002,0.16388048751187018
20.16,0.16171870764652152
20.240000000000002,0.15966947731276618
20.32,0.15773425066641408
20.400000000000002,0.15591445823106537
20.48,0.15421155991846983
20.56,0.15262700489704706
20.64,0.15116209785786971
20.72,0.14981778111567753
20.8,0.14859435113665487
20.88,0.147491135581936
20.96,0.14650616202930092
21.04,0.1456358516525788
21.12,0.14487477005576108
21.2,0.14421546324998347
21.28,0.1436483998114493
21.36,0.1431620312276643
21.44,0.1427429721998104
21.52,0.14237629221690476
21.6,0.14204590007314372
21.68,0.14173499510479112
21.76,0.1414265535430548
21.84,0.14110381602630148
21.92,0.14075074319338993
22.0,0.14035241026619244
22.080000000000002,0.13989531818439646
22.16,0.1393676074703453
22.240000000000002,0.1387591706711188
22.32,0.13806166894288685
22.400000000000002,0.13726846710633372
22.48,0.13637450841797766
22.56,0.13537615467917138
22.64,0.1342710187259004
22.72,0.13305781470971118
22.8,0.13173624712241852
22.88,0.13030695276645687
22.96,0.12877150160543172
23.04,0.1271324535829341
23.12,0.12539346006839922
23.2,0.12355939152386336
23.28,0.12163646807958589
23.36,0.11963236751523729
23.44,0.11755628592254651
23.52,0.11541893000368765
23.6,0.11323242614731835
23.68,0.1110101394565776
23.76,0.10876640491550144
23.84,0.10651618190292583
23.92,0.10427465132931879
24.0,0.1020567809238259
24.080000000000002,0.09987688797866018
24.16,0.09774822977833064
24.240000000000002,0.09568264992244176
24.32,0.09369030402472303
24.400000000000002,0.0917794813495511
24.48,0.08995653056176627
24.560000000000002,0.08822588878275474
24.64,0.08659020447160827
24.72,0.08505053713249702
24.8,0.08360661118978291
24.88,0.0822570980573259
24.96,0.08099989968652874
25.04,0.07983240866679392
25.12,0.07875172397664981
25.2,0.0777548072387954
25.28,0.07683857116784139
25.36,0.07599989909756837
25.44,0.07523560132831135
25.52,0.07454231992171301
25.6,0.07391639800873406
25.68,0.07335373236613181
25.76,0.07284962884940926
25.84,0.07239867932463126
25.92,0.07199467625292424
26.0,0.07163057739992432
26.080000000000002,0.07129852868286488
26.16,0.0709899483601536
26.240000000000002,0.07069567101317135
26.32,0.07040614540701219
26.400000000000002,0.07011167660453725
26.48,0.06980269981840016
26.560000000000002,0.0694700715097544
26.64,0.06910536220404091
26.72,0.06870113536735695
26.8,0.06825119741153525
26.88,0.06775080539144177
26.96,0.0671968211293979
27.04,0.0665878032420343
27.12,0.06592403173207023
27.2,0.06520746329987727
27.28,0.06444161916292686
27.36,0.0636314107590661
27.44,0.06278291204976137
27.52,0.06190309002580229
27.6,0.06099950725678274
27.68,0.06008001175520603
27.76,0.059152429934937995
27.84,0.05822427798609818
27.92,0.0573025055925597
28.0,0.05639328368669794
28.080000000000002,0.055501845037856115
28.16,0.05463238312547771
28.240000000000002,0.053788011203101824
28.32,0.05297077996822429
28.400000000000002,0.05218174904921772
28.48,0.05142110479902425
28.560000000000002,0.05068831478803443
28.64,0.04998230799726089
28.72,0.04930166904946119
28.8,0.048644834848721424
28.88,0.048010282653979136
28.96,0.047396699785528976
29.04,0.04680312673614114
29.12,0.04622906730616733
29.2,0.04567456138569902
29.28,0.04514021805768828
29.36,0.044627208698563084
29.44,0.04413722162610394
29.52,0.043672381521196235
29.6,0.04323513827734596
29.68,0.042828131070526305
29.76,0.042454034268043964
29.84,0.04211539230103103
29.92,0.04181445082042017
30.0,0.04155299136711913
30.080000000000002,0.04133217645433292
30.16,0.04115241143405396
30.240000000000002,0.04101322885433214
30.32,0.04091320025789196
30.400000000000002,0.04084987956244156
30.48,0.04081978131663632
30.560000000000002,0.040818396240096144
30.64,0.0408402455087161
30.72,0.04087897420235824
30.8,0.04092748315284536
30.88,0.040978097088509774
30.96,0.04102276546351969
31.04,0.04105329071688789
31.12,0.04106157699950889
31.2,0.04103989075064596
31.28,0.040981123043784644
31.36,0.04087904251963092
31.44,0.04072852714313991
31.52,0.0405257630990747
31.6,0.040268399967418565
31.68,0.0399556529229414
31.76,0.03958834503528039
31.84,0.039168885685283414
31.92,0.03870118447236867
32.0,0.0381905035301888
32.08,0.03764325463323168
32.160000000000004,0.03706675060657019
32.24,0.036468923114326646
32.32,0.035858020719089286
32.4,0.03524230205897408
32.480000000000004,0.034629739037492266
32.56,0.034027744090095506
32.64,0.033442933967797336
32.72,0.032880940197508465
32.8,0.03234627360686125
32.88,0.03184224721951002
32.96,0.031370958617887613
33.04,0.030933329707902614
33.12,0.030529198862766036
33.2,0.030157457811322355
33.28,0.029816223490812283
33.36,0.029503033505632055
33.44,0.029215052901465255
33.52,0.028949279732314124
33.6,0.028702737390759913
33.68,0.02847264287757658
33.76,0.02825654205221111
33.84,0.02805240533176464
33.92,0.027858680148580475
34.0,0.02767429955052165
34.08,0.02749864941886086
34.160000000000004,0.027331499657802127
34.24,0.02717290715430141
34.32,0.027023100121665755
34.4,0.026882354477957764
34.480000000000004,0.026750873087800026
34.56,0.026628678006402406
34.64,0.02651552437822075
34.72,0.026410842502478434
34.800000000000004,0.02631371198480282
34.88,0.026222869086992645
34.96,0.0261367456167614
35.04,0.026053535204667456
35.12,0.025971280798157283
35.2,0.02588797580920689
35.28,0.02580167066170111
35.36,0.0257105765058588
35.44,0.025613158541690086
35.52,0.025508212608760752
35.6,0.025394920304385907
35.68,0.02527287971698614
35.76,0.02514211073660439
35.84,0.025003035679282817
35.92,0.02485643751546741
36.0,0.024703399242298477
36.08,0.024545228842665977
36.160000000000004,0.024383374823823453
36.24,0.024219337547697208
36.32,0.02405458149599299
36.4,0.02389045330751121
36.480000000000004,0.023728109935257626
36.56,0.023568460643710862
36.64,0.023412125839413215
36.72,0.023259414928375192
36.800000000000004,0.023110324541135638
36.88,0.022964557575630568
36.96,0.02282156259376042
37.04,0.022680592187141954
37.12,0.022540778023711436
37.2,0.022401219428046532
37.28,0.02226108156761071
37.36,0.022119698649655996
37.44,0.021976677013285803
37.52,0.021831992657854342
37.6,0.02168607760563237
37.68,0.021539889569017565
37.76,0.021394959688820613
37.84,0.02125341363291497
37.92,0.021117962092910527
38.0,0.020991857687861264
38.08,0.020878816474923373
38.160000000000004,0.02078290367176697
38.24,0.020708384803623477
38.32,0.020659545277364064
38.4,0.02064048331658152
38.480000000000004,0.020654883201045172
38.56,0.02070577774658098
38.64,0.02079531081015252
38.72,0.020924512152529665
38.800000000000004,0.021093098058978247
38.88,0.02129931152236208
38.96,0.02153981536290775
39.04,0.021809650263631297
39.12,0.022102267273097123
39.2,0.022409640887087925
39.28,0.022722464488959357
39.36,0.02303042493281736
39.44,0.023322547721306666
39.52,0.023587598965838084
39.6,0.023814525570468426
39.68,0.02399291130066287
39.76,0.024113423985579634
39.84,0.02416822836202424
39.92,0.02415134016797077
40.0,0.024058900038045238
40.08,0.0238893503735893
40.160000000000004,0.023643504323427846
40.24,0.023324502851447267
40.32,0.022937663027847475
40.4,0.022490227573910893
40.480000000000004,0.021991031754165568
40.56,0.021450108467662106
40.64,0.02087825549486742
40.72,0.02028659012247268
40.800000000000004,0.01968611578220376
40.88,0.01908732305371468
40.96,0.01849984368848076
41.04,0.017932171605935035
41.12,0.017391459545474105
41.2,0.016883394686782932
41.28,0.016412151498218695
41.36,0.015980415688529058
41.44,0.015589469674230872
41.52,0.015239327578715602
41.6,0.014928906487466807
41.68,0.01465622043865228
41.76,0.014418584295013744
41.84,0.014212816033504164
41.92,0.014035427887597648
42.0,0.013882798963111304
42.08,0.013751324216787209
42.160000000000004,0.013637536863230562
42.24,0.01353820322560254
42.32,0.013450390678176822
42.4,0.013371510597209417
42.480000000000004,0.013299339131783473
42.56,0.01323201915083885
42.64,0.013168046961223537
42.72,0.013106247382233807
42.800000000000004,0.013045740567160695
42.88,0.012985903641696567
42.96,0.012926329834708813
43.04,0.012866787350011453
43.12,0.012807179797738122
43.2,0.012747509589178876
43.28,0.012687845309300033
43.36,0.012628293720747781
43.44,0.012568976723513715
43.52,0.012510013297234454
43.6,0.012451506191751413
43.68,0.012393532911910603
43.76,0.01233614037236065
43.84,0.012279342485520834
43.92,0.012223119897529378
44.0,0.012167421105906493
44.08,0.012112164276524336
44.160000000000004,0.012057239217752019
44.24,0.012002509151597934
44.32,0.011947812125571097
44.4,0.01189296211208453
44.480000000000004,0.011837750021433556
44.56,0.011781944989064175
44.64,0.011725296372471815
44.72,0.011667536899032651
44.800000000000004,0.011608387342882439
44.88,0.01154756298407127
44.96,0.01148478193111856
45.04,0.011419775188352878
45.12,0.011352298144362716
45.2,0.011282142969961714
45.28,0.011209151263394546
45.36,0.011133226182850602
45.44,0.01105434327168026
45.52,0.01097255921350836
45.6,0.010888017849698941
45.68,0.010800952941483451
45.76,0.010711687349918763
45.84,0.010620628521888298
45.92,0.010528260391260216
46.0,0.010435132012953825
46.08,0.01034184342786528
46.160000000000004,0.010249029395577253
46.24,0.010157341721297071
46.32,0.010067430940638965
46.4,0.009979928113262792
46.480000000000004,0.009895427421692951
46.56,0.009814470186654762
46.64,0.00973753080922255
46.72,0.009665005047745558
46.800000000000004,0.009597200946903865
46.88,0.009534332666499895
46.96,0.009476517412272964
47.04,0.009423775647107871
47.12,0.009376034748835435
47.2,0.009333136265153273
47.28,0.009294846878312342
47.36,0.00926087311289128
47.44,0.009230879682981712
47.52,0.00920451117074699
47.6,0.009181416456532374
47.68,0.009161274993212537
47.76,0.009143823658494116
47.84,0.009128882564270859
47.92,0.009116377896678058
48.0,0.009106359653768062
48.08,0.009099012088581854
48.160000000000004,0.00909465479579057
48.24,0.009093732728807629
48.32,0.009096794011393535
48.4,0.009104455200299672
48.480000000000004,0.009117354625159842
48.56,0.009136095515325203
48.64,0.009161181735220453
48.72,0.009192949988416762
48.800000000000004,0.00923150320637482
48.88,0.0092766504036097
48.96,0.009327858463749712
49.04,0.009384221053061236
49.120000000000005,0.009444449107868895
49.2,0.00950688612192125
49.28,0.009569549828864514
49.36,0.009630199940110261
49.44,0.009686429506976608
49.52,0.009735775405111018
49.6,0.009775841579959818
49.68,0.009804427230834028
49.76,0.009819651209739214
49.84,0.009820063688086352
49.92,0.00980473665952118
50.0,0.009773326091830114
50.08,0.00972610043546645
50.160000000000004,0.009663932594852756
50.24,0.00958825517191556
50.32,0.009500981565417283
50.4,0.009404398109383507
50.480000000000004,0.009301034627758418
50.56,0.009193522376114158
50.64,0.009084449197565908
50.72,0.008976221772176848
50.800000000000004,0.00887094409636983
50.88,0.008770319874004204
50.96,0.008675584480002992
51.04,0.008587469763608737
51.120000000000005,0.008506202410452643
51.2,0.008431534103223535
51.28,0.008362799514419605
51.36,0.008298996399751278
51.44,0.008238880855550258
51.52,0.008181070218847251
51.6,0.008124146126553024
51.68,0.008066750857951702
51.76,0.008007671165080601
51.84,0.007945905218918435
51.92,0.007880709918529176
52.0,0.007811627475713878
52.08,0.007738491760602437
52.160000000000004,0.007661416257461013
52.24,0.007580766548511879
52.32,0.007497120964954501
52.4,0.007411223402159009
52.480000000000004,0.007323932306414387
52.56,0.007236169547397168
52.64,0.00714887235784395
52.72,0.00706295082614336
52.800000000000004,0.006979252648999538
52.88,0.006898536066467622
52.96,0.006821451176746863
53.04,0.006748529214442144
53.120000000000005,0.006680178907157021
53.2,0.0066166887164709936
53.28,0.006558233618599303
53.36,0.006504885070823742
53.44,0.006456622914976706
53.52,0.0064133481553778435
53.6,0.006374895780362241
53.68,0.006341047040744727
53.76,0.00631154082741823
53.84,0.006286083983455806
53.92,0.006264360531688053
54.0,0.006246039893115283
54.08,0.0062307842181976054
54.160000000000004,0.0062182549608443514
54.24,0.006208118805714681
54.32,0.006200053026000636
54.4,0.006193750312842457
54.480000000000004,0.006188923087908208
54.56,0.006185307292944779
54.64,0.0061826656460098346
54.72,0.006180790362043096
54.800000000000004,0.006179505351355612
54.88,0.006178667928157858
54.96,0.006178170076966912
55.04,0.006177939333230215
