Frequency,PSD
6.057142857142857,0.06037575361546277
6.171428571428571,0.06055730297796309
6.285714285714286,0.06078495319455737
6.3999999999999995,0.06082550553369684
6.514285714285714,0.060442796269563615
6.628571428571428,0.059537986859470766
6.742857142857143,0.05825564812990441
6.857142857142857,0.05695191672882116
6.9714285714285715,0.05600494040096414
7.085714285714285,0.0555876729763273
7.2,0.05557817274813859
7.314285714285714,0.05567791987776158
7.428571428571428,0.055634515827999206
7.542857142857143,0.05538744849148196
7.657142857142857,0.05503911048091199
7.771428571428571,0.05470425899945826
7.885714285714285,0.054371481714995964
8.0,0.05387376676008919
8.114285714285714,0.0529722592756155
8.228571428571428,0.051488550804837524
8.342857142857143,0.0494086469250294
8.457142857142857,0.04691205125092758
8.571428571428571,0.04432440118989385
8.685714285714285,0.04202687618594377
8.799999999999999,0.04036326218837972
8.914285714285715,0.0395677822468321
9.028571428571428,0.03971710397385367
9.142857142857142,0.04071094732326924
9.257142857142856,0.04229932124305372
9.371428571428572,0.044166971453231424
9.485714285714286,0.04604364449073095
9.6,0.04777043688035488
9.714285714285714,0.04927255783220312
9.828571428571427,0.05046698659160162
9.942857142857143,0.05119786414399437
10.057142857142857,0.05127250870654165
10.17142857142857,0.05057893876548662
10.285714285714285,0.04918846515645671
10.4,0.04735632619004741
10.514285714285714,0.04541617428991676
10.628571428571428,0.043641437188341674
10.742857142857142,0.04215645343612676
10.857142857142858,0.04093367610943726
10.971428571428572,0.03986407534299647
11.085714285714285,0.03886461294292474
11.2,0.037975960390004254
11.314285714285713,0.03739556332983813
11.428571428571429,0.0374058144839831
11.542857142857143,0.03821166254163428
11.657142857142857,0.03977188379307575
11.77142857142857,0.04173789297434245
11.885714285714286,0.043564954631521643
12.0,0.04475254443756047
12.114285714285714,0.04507810918932226
12.228571428571428,0.044684778462743206
12.342857142857142,0.04397425710008525
12.457142857142857,0.043375165535090514
12.571428571428571,0.04312747268127908
12.685714285714285,0.04320836958420741
12.799999999999999,0.04343278845936434
12.914285714285715,0.043642791556001155
13.028571428571428,0.04383611692667578
13.142857142857142,0.04413621028817572
13.257142857142856,0.04464268182798631
13.371428571428572,0.04530455394036134
13.485714285714286,0.04593262633306397
13.6,0.04633733158462341
13.714285714285714,0.046469170916459336
13.828571428571427,0.04644773636065073
13.942857142857143,0.046468843979446846
14.057142857142857,0.04667019971868108
14.17142857142857,0.04704324207662887
14.285714285714285,0.04742760658511883
14.4,0.04757777761684733
14.514285714285714,0.04726911556678062
14.628571428571428,0.04639762431442551
14.742857142857142,0.04502860361688641
14.857142857142856,0.04337988548940419
14.971428571428572,0.041763880536176176
15.085714285714285,0.04051505960315177
15.2,0.039902483420879556
15.314285714285713,0.040028674716071314
15.428571428571429,0.04076208817869814
15.542857142857143,0.041772817814952304
15.657142857142857,0.042681061222959074
15.77142857142857,0.04323106898734225
15.885714285714284,0.04337497949744716
16.0,0.04322681630113622
16.114285714285714,0.04295065115008022
16.228571428571428,0.04267965682195843
16.34285714285714,0.04250790720114371
16.457142857142856,0.04252272431117368
16.57142857142857,0.0428208742998177
16.685714285714287,0.04348152992788444
16.8,0.044510930117787006
16.914285714285715,0.045795352407895826
17.02857142857143,0.04709681704355731
17.142857142857142,0.04810715556221713
17.257142857142856,0.04854667322800807
17.37142857142857,0.04826560048365861
17.485714285714284,0.04729921971967736
17.599999999999998,0.0458516132288037
17.714285714285715,0.04422533245568089
17.82857142857143,0.04274295595029932
17.942857142857143,0.04169619730314739
18.057142857142857,0.04131908627010773
18.17142857142857,0.041757290022802124
18.285714285714285,0.043025011584595506
18.4,0.04497612384501221
18.514285714285712,0.04731489066120961
18.628571428571426,0.04963585064997611
18.742857142857144,0.05147245634629518
18.857142857142858,0.052370710160232314
18.97142857142857,0.05201811293628454
19.085714285714285,0.050391916984575943
19.2,0.047811503980293296
19.314285714285713,0.04481194471086823
19.428571428571427,0.04190178863673997
19.54285714285714,0.03937886870780894
19.657142857142855,0.037328594285287675
19.771428571428572,0.0357674970010964
19.885714285714286,0.03477939037221182
20.0,0.03451923830196152
20.114285714285714,0.03508700869638782
20.228571428571428,0.03638427836008819
20.34285714285714,0.03807916064512314
20.457142857142856,0.03972214972583733
20.57142857142857,0.04094299601610263
20.685714285714287,0.04159850273287123
20.8,0.04177693313164246
20.914285714285715,0.04166985359463722
21.02857142857143,0.041416091555641674
21.142857142857142,0.04103197763135137
21.257142857142856,0.040461723197895885
21.37142857142857,0.03968142485285749
21.485714285714284,0.03875677814793675
21.599999999999998,0.03781274893580299
21.714285714285715,0.036960256573050194
21.82857142857143,0.036253325532683796
21.942857142857143,0.035700821219111556
22.057142857142857,0.035296174195906305
22.17142857142857,0.03502734024156697
22.285714285714285,0.03487696762910911
22.4,0.0348445911646797
22.514285714285712,0.03498246231596694
22.628571428571426,0.03538978376917803
22.742857142857144,0.03613180565209844
22.857142857142858,0.037132088875024054
22.97142857142857,0.038139829319501266
23.085714285714285,0.03883424680362188
23.2,0.03902255963240179
23.314285714285713,0.0388030306523515
23.428571428571427,0.038566499476709724
23.54285714285714,0.038804333219837596
23.657142857142855,0.03982352118287457
23.771428571428572,0.04155062477315734
23.885714285714286,0.04356236147350493
24.0,0.04532446541868608
24.114285714285714,0.046468893108105556
24.228571428571428,0.046925339311182965
24.34285714285714,0.046859846789045694
24.457142857142856,0.0465251751366809
24.57142857142857,0.04615044082383383
24.685714285714283,0.04589941141027578
24.8,0.045844867819539004
24.914285714285715,0.045929761371991285
25.02857142857143,0.04595815851455514
25.142857142857142,0.04567158573299582
25.257142857142856,0.04489615853647648
25.37142857142857,0.043668351581926265
25.485714285714284,0.042244032710090695
25.599999999999998,0.040975920604128
25.71428571428571,0.04014308597318043
25.82857142857143,0.03984761074501352
25.942857142857143,0.04002850226368295
26.057142857142857,0.040542148165719286
26.17142857142857,0.04122115737864898
26.285714285714285,0.04188178080385155
26.4,0.042327860364532795
26.514285714285712,0.04239985459036047
26.628571428571426,0.04204574386355152
26.742857142857144,0.04134588945325785
26.857142857142858,0.040466544580868666
26.97142857142857,0.039589107284640594
27.085714285714285,0.03887217963732164
27.2,0.038447945289042135
27.314285714285713,0.03841286627182237
27.428571428571427,0.03879361637249772
27.54285714285714,0.03951353324781464
27.657142857142855,0.04039328627905959
27.771428571428572,0.04119237970001972
27.885714285714286,0.04167818363921599
28.0,0.04170821410913114
28.114285714285714,0.04130097468787299
28.228571428571428,0.04064709077371865
28.34285714285714,0.040022301894391606
28.457142857142856,0.03963417348946848
28.57142857142857,0.0395080929043916
28.685714285714283,0.03950574736906402
28.8,0.03946279002785702
28.914285714285715,0.039330088984775816
29.02857142857143,0.03920568528211197
29.142857142857142,0.03924546048912629
29.257142857142856,0.039536424698929706
29.37142857142857,0.04002450221077673
29.485714285714284,0.04052775886016703
29.599999999999998,0.04081217774671172
29.71428571428571,0.04069337525680625
29.82857142857143,0.04012634695147111
29.942857142857143,0.03923826579172931
30.057142857142857,0.03827281878460923
30.17142857142857,0.037466786346983395
30.285714285714285,0.03693380377573566
30.4,0.03663134852569382
30.514285714285712,0.03642774998320323
30.628571428571426,0.03621571424178729
30.74285714285714,0.03599347375445493
30.857142857142858,0.03586814684661997
30.97142857142857,0.03599281235879628
31.085714285714285,0.03648050218298902
31.2,0.03733170239609768
31.314285714285713,0.03839760032132418
31.428571428571427,0.039403073605517494
31.54285714285714,0.04004675433050839
31.657142857142855,0.04014703878419356
31.77142857142857,0.03974310731670805
31.885714285714286,0.03906787899683905
32.0,0.03840599864409176
32.114285714285714,0.03794598635918499
32.22857142857143,0.03772926097694802
32.34285714285714,0.03769977588788612
32.457142857142856,0.037776614752005375
32.57142857142857,0.03788406800904765
32.68571428571428,0.03794204429189336
32.8,0.03785978537336965
32.91428571428571,0.0375597337082437
33.028571428571425,0.037021702192557356
33.14285714285714,0.03631555195007114
33.25714285714285,0.03559038976601957
33.371428571428574,0.03501013368180283
33.48571428571429,0.03466602521816559
33.6,0.03452769043783555
33.714285714285715,0.03447586904988704
33.82857142857143,0.034394581318793735
33.94285714285714,0.03424773787563477
34.05714285714286,0.03408054108849421
34.17142857142857,0.03395585363835773
34.285714285714285,0.033889934301970716
34.4,0.03384067196619204
34.51428571428571,0.03374583330385653
34.628571428571426,0.03357043927273777
34.74285714285714,0.03333236436055537
34.857142857142854,0.03310710362994588
34.97142857142857,0.03302322154428289
35.08571428571428,0.03324241916573847
35.199999999999996,0.03390549214883224
35.31428571428572,0.035047183539021434
35.42857142857143,0.03652586163455624
35.542857142857144,0.038030312435173894
35.65714285714286,0.0391837447469852
35.77142857142857,0.039690601184171045
35.885714285714286,0.03943350214841271
36.0,0.03846818753638401
36.114285714285714,0.036949002052207865
36.22857142857143,0.035064230620149996
36.34285714285714,0.03302732038301423
36.457142857142856,0.031099692180105186
36.57142857142857,0.029588226405219423
36.68571428571428,0.028788488308254086
36.8,0.02889307743934673
36.91428571428571,0.0299090853314251
37.028571428571425,0.03162401085774388
37.14285714285714,0.03364314214550778
37.25714285714285,0.03550168034571599
37.371428571428574,0.036825727531365614
37.48571428571429,0.03747852409078003
37.6,0.037608597250749644
37.714285714285715,0.037551997964927177
37.82857142857143,0.0376307911778003
37.94285714285714,0.037970757590298006
38.05714285714286,0.03845670166903579
38.17142857142857,0.03884693951799019
38.285714285714285,0.038956122454914185
38.4,0.03877526388928494
38.51428571428571,0.0384527657112845
38.628571428571426,0.03816201733496335
38.74285714285714,0.03795793791717622
38.857142857142854,0.03772925922324546
38.97142857142857,0.03728353009948
39.08571428571428,0.036502286687059904
39.199999999999996,0.03544717996787016
39.31428571428571,0.03433593398630254
39.42857142857143,0.03341533400661963
39.542857142857144,0.03284157771068459
39.65714285714286,0.03265795556861248
39.77142857142857,0.03285898135084893
39.885714285714286,0.033451616365121915
40.0,0.03444181530336717
40.114285714285714,0.03575949928011599
40.22857142857143,0.0371975097429644
40.34285714285714,0.03842870174338846
40.457142857142856,0.03910687510594109
40.57142857142857,0.03900620649074254
40.68571428571428,0.038133460656083674
40.8,0.036752879072981845
40.91428571428571,0.035295733011481235
41.028571428571425,0.03418581239450521
41.14285714285714,0.033668139258548294
41.25714285714285,0.03373032424089939
41.371428571428574,0.034143415416840885
41.48571428571429,0.03457667497442865
41.6,0.03472060358974678
41.714285714285715,0.03438295055088689
41.82857142857143,0.03355047737842891
41.94285714285714,0.03240571272513423
42.05714285714286,0.03127836683463769
42.17142857142857,0.030529938439061637
42.285714285714285,0.030412636408399443
42.4,0.030973818071016672
42.51428571428571,0.03206383850700048
42.628571428571426,0.03344614430350443
42.74285714285714,0.03493600748781542
42.857142857142854,0.03646496810327284
42.97142857142857,0.03802027345257601
43.08571428571428,0.03951282940373657
43.199999999999996,0.040694745724687904
43.31428571428571,0.041212907794227385
43.42857142857143,0.04077658194127644
43.542857142857144,0.039330583431228444
43.65714285714286,0.037127057053426504
43.77142857142857,0.0346585740611439
43.885714285714286,0.0324881095682317
44.0,0.031050439032699016
44.114285714285714,0.030507461026147306
44.22857142857143,0.030719450295493674
44.34285714285714,0.03133890734619984
44.457142857142856,0.03196644553360993
44.57142857142857,0.032284074841740916
44.68571428571428,0.03212271643693348
44.8,0.03147820499564022
44.91428571428571,0.03050139294318892
45.028571428571425,0.029459382114981787
45.14285714285714,0.028654342208437635
45.25714285714285,0.028317570309593712
45.37142857142857,0.028529655654596798
45.48571428571429,0.02920859040516727
45.6,0.0301624234252373
45.714285714285715,0.031164435880406245
45.82857142857143,0.032009211300498296
45.94285714285714,0.0325412550658275
46.05714285714286,0.03267615405807789
46.17142857142857,0.03242529658304386
46.285714285714285,0.031902310354019685
46.4,0.03128281608622422
46.51428571428571,0.03073055623918136
46.628571428571426,0.03034612459102959
46.74285714285714,0.03017879991026375
46.857142857142854,0.030276435847355867
46.97142857142857,0.03070699723558622
47.08571428571428,0.03151534849098011
47.199999999999996,0.032646265434276296
47.31428571428571,0.03390230633021304
47.42857142857143,0.03498564981613947
47.542857142857144,0.03561763136982548
47.65714285714286,0.0356758605764777
47.77142857142857,0.03527043535557547
47.885714285714286,0.034714687498851704
48.0,0.03440873754477241
48.114285714285714,0.034692312833338554
48.22857142857143,0.03571308604376356
48.34285714285714,0.03733679786342673
48.457142857142856,0.03913783888391349
48.57142857142857,0.04052466381404744
48.68571428571428,0.041003823257735335
48.8,0.040473131565914734
48.91428571428571,0.03936860614255391
49.028571428571425,0.03856683909438993
49.14285714285714,0.03911470092401828
49.25714285714285,0.04196265898379169
49.37142857142857,0.047813054586342475
49.48571428571429,0.057019342697404794
49.6,0.06936685635562541
49.714285714285715,0.08369041681506552
49.82857142857143,0.09760424956302075
49.94285714285714,0.10782511450187075
50.05714285714286,0.11130034194400892
50.17142857142857,0.10666538551873456
50.285714285714285,0.09506808960293203
50.4,0.07970356242379918
50.51428571428571,0.06433248654234136
50.628571428571426,0.05176068307475566
50.74285714285714,0.043130739705677205
50.857142857142854,0.03815785635240536
50.97142857142857,0.035839847145418255
51.08571428571428,0.03509253375753007
51.199999999999996,0.03506117765486765
51.31428571428571,0.035170896798601574
51.42857142857142,0.035089723137338394
51.542857142857144,0.03470611943537161
51.65714285714286,0.03410678150615375
51.77142857142857,0.03350028488202734
51.885714285714286,0.033085486338221046
52.0,0.032933460911139044
52.114285714285714,0.03295697192075683
52.22857142857143,0.03298055721755877
52.34285714285714,0.03286074292139832
52.457142857142856,0.032586790035016064
52.57142857142857,0.03231095256609335
52.68571428571428,0.032289204604937685
52.8,0.03275171234530936
52.91428571428571,0.03376207060231795
53.028571428571425,0.035142455925186326
53.14285714285714,0.036516015363227086
53.25714285714285,0.03745611708288034
53.37142857142857,0.037671134982596964
53.48571428571429,0.0371309402842308
53.6,0.03607185258165355
53.714285714285715,0.034882653241401815
53.82857142857143,0.03393469211499787
53.94285714285714,0.033439238120285916
54.05714285714286,0.033391385342647344
54.17142857142857,0.03361408945716502
54.285714285714285,0.033870851126411125
54.4,0.03398563217914457
54.51428571428571,0.03390822347253656
54.628571428571426,0.03369944214686799
54.74285714285714,0.033462611827736084
54.857142857142854,0.03327594192018721
54.97142857142857,0.033165250959551314
55.08571428571428,0.033118657523048725
