Frequency,PSD
6.057142857142857,0.3341161822541006
6.171428571428571,0.33752233643928015
6.285714285714286,0.34395887051816343
6.3999999999999995,0.3527484736595549
6.514285714285714,0.3630451300067591
6.628571428571428,0.3739968089776723
6.742857142857143,0.38490166085711763
6.857142857142857,0.39532208019105997
6.9714285714285715,0.405131490879177
7.085714285714285,0.41448740536186107
7.2,0.4237460318097058
7.314285714285714,0.4333509196192591
7.428571428571428,0.4437339725314557
7.542857142857143,0.45525878051532975
7.657142857142857,0.4682166762835631
7.771428571428571,0.4828632034839341
7.885714285714285,0.4994662225833947
8.0,0.5183332452059721
8.114285714285714,0.5397956404880031
8.228571428571428,0.5641462418751293
8.342857142857143,0.5915465815066969
8.457142857142857,0.6219329039056046
8.571428571428571,0.6549519996936598
8.685714285714285,0.6899489927540476
8.799999999999999,0.7260135889074358
8.914285714285715,0.7620748753954522
9.028571428571428,0.7970228321102639
9.142857142857142,0.8298299686744601
9.257142857142856,0.8596485483950347
9.371428571428572,0.8858654455969159
9.485714285714286,0.9081056875160907
9.6,0.9261863377955621
9.714285714285714,0.9400343215374689
9.828571428571427,0.9495933226809218
9.942857142857143,0.9547515617482654
10.057142857142857,0.9553185002666358
10.17142857142857,0.9510616851040705
10.285714285714285,0.9417892534319073
10.4,0.9274402815929721
10.514285714285714,0.9081373577604097
10.628571428571428,0.8841706830233302
10.742857142857142,0.8559160288236902
10.857142857142858,0.8237242750993445
10.971428571428572,0.7878390525223018
11.085714285714285,0.7483897526831261
11.2,0.7054730144993697
11.314285714285713,0.6592933839843208
11.428571428571429,0.6103043352100564
11.542857142857143,0.5592884501227705
11.657142857142857,0.5073403669493128
11.77142857142857,0.4557550262025615
11.885714285714286,0.40585836903308903
12.0,0.35883391639343243
12.114285714285714,0.315592818856713
12.228571428571428,0.27671333857325137
12.342857142857142,0.24244973785683066
12.457142857142857,0.21279064161516742
12.571428571428571,0.18753856579793365
12.685714285714285,0.16638522374238152
12.799999999999999,0.14896728721040353
12.914285714285715,0.13489906520549427
13.028571428571428,0.12378757203037088
13.142857142857142,0.11523932675033075
13.257142857142856,0.10886698535378683
13.371428571428572,0.10429946411989344
13.485714285714286,0.10119435837124
13.6,0.09924865706051263
13.714285714285714,0.09820410870247928
13.828571428571427,0.09784643518653766
13.942857142857143,0.09800088303805146
14.057142857142857,0.09852809677244632
14.17142857142857,0.09932286247542257
14.285714285714285,0.10031466232635274
14.4,0.10146554780961416
14.514285714285714,0.1027601684292153
14.628571428571428,0.10418605113720573
14.742857142857142,0.10570818988972606
14.857142857142856,0.1072474784286759
14.971428571428572,0.1086740325643242
15.085714285714285,0.10982231356896266
15.2,0.110526467386224
15.314285714285713,0.11066524337776094
15.428571428571429,0.11020066876173498
15.542857142857143,0.10919603539835705
15.657142857142857,0.10780627024704648
15.77142857142857,0.10624408278573859
15.885714285714284,0.10473391049697149
16.0,0.10346912830915517
16.114285714285714,0.1025852625449486
16.228571428571428,0.10215471056402496
16.34285714285714,0.10219996018966832
16.457142857142856,0.10271584021708248
16.57142857142857,0.10368906662778155
16.685714285714287,0.10510573729777192
16.8,0.10694334478346647
16.914285714285715,0.10915109574443978
17.02857142857143,0.11162818155391684
17.142857142857142,0.11421181444384379
17.257142857142856,0.11668418031534841
17.37142857142857,0.1188006302120135
17.485714285714284,0.12033295286504618
17.599999999999998,0.12111496086677631
17.714285714285715,0.12107587347506234
17.82857142857143,0.12025103650669283
17.942857142857143,0.11876767343538214
18.057142857142857,0.1168120006466828
18.17142857142857,0.11458945321232178
18.285714285714285,0.11228999499877854
18.4,0.11006616464035071
18.514285714285712,0.10802527880312628
18.628571428571426,0.10623213918619495
18.742857142857144,0.10471656862064743
18.857142857142858,0.10348115998136806
18.97142857142857,0.10250731806562319
19.085714285714285,0.10176017949719673
19.2,0.10119410682779545
19.314285714285713,0.10076001497059102
19.428571428571427,0.10041444884273346
19.54285714285714,0.10012895739266783
19.657142857142855,0.09989748823755282
19.771428571428572,0.09973941298301192
19.885714285714286,0.09969627806284728
20.0,0.09982135771435488
20.114285714285714,0.10016257736819498
20.228571428571428,0.1007413525436118
20.34285714285714,0.10153200543488095
20.457142857142856,0.10244788420030093
20.57142857142857,0.10334012135835505
20.685714285714287,0.10401250800982016
20.8,0.1042515559606356
20.914285714285715,0.10386586289057706
21.02857142857143,0.10272532352501379
21.142857142857142,0.10079009549300227
21.257142857142856,0.09812190818699239
21.37142857142857,0.0948753078284954
21.485714285714284,0.09127190401299115
21.599999999999998,0.08756473949304494
21.714285714285715,0.08400136837453426
21.82857142857143,0.08079295622585553
21.942857142857143,0.07809352062769077
22.057142857142857,0.07598971696047883
22.17142857142857,0.07449882412518342
22.285714285714285,0.07357179526553669
22.4,0.0730994738438896
22.514285714285712,0.07292236819643128
22.628571428571426,0.07284613125189163
22.742857142857144,0.07266468652023486
22.857142857142858,0.07219036341302762
22.97142857142857,0.07128642687975174
23.085714285714285,0.06989401397526808
23.2,0.0680447875823108
23.314285714285713,0.06585358730672444
23.428571428571427,0.06349127788913032
23.54285714285714,0.06114461802317568
23.657142857142855,0.05897452948762115
23.771428571428572,0.05708466648088346
23.885714285714286,0.055508429517862334
24.0,0.05421610899472147
24.114285714285714,0.0531372785563623
24.228571428571428,0.052189319376030954
24.34285714285714,0.051302321876550046
24.457142857142856,0.05043334954991943
24.57142857142857,0.04956773811557142
24.685714285714283,0.04870985397058814
24.8,0.04786894299458186
24.914285714285715,0.04704652911102536
25.02857142857143,0.04623033520416108
25.142857142857142,0.0453966857199018
25.257142857142856,0.04451997744230798
25.37142857142857,0.04358522489500272
25.485714285714284,0.042598696000655
25.599999999999998,0.04159247504193616
25.71428571428571,0.0406210322137076
25.82857142857143,0.039750689760187446
25.942857142857143,0.039045247394880016
26.057142857142857,0.03855216152235482
26.17142857142857,0.03829324202978825
26.285714285714285,0.03826209118198318
26.4,0.03842817149483872
26.514285714285712,0.038745334743017085
26.628571428571426,0.039161584170592734
26.742857142857144,0.039627051770341676
26.857142857142858,0.0400984075678438
26.97142857142857,0.04053955453645736
27.085714285714285,0.0409198022033068
27.2,0.04121129624574871
27.314285714285713,0.041387258371573185
27.428571428571427,0.04142185482881365
27.54285714285714,0.04129168660664295
27.657142857142855,0.040978311239946164
27.771428571428572,0.04047099934977292
27.885714285714286,0.03976905613488165
28.0,0.03888335207258323
28.114285714285714,0.03783701886825688
28.228571428571428,0.03666540051172652
28.34285714285714,0.03541522214960794
28.457142857142856,0.034142641760910725
28.57142857142857,0.032909644928726826
28.685714285714283,0.031778428784295765
28.8,0.030804106621970438
28.914285714285715,0.03002702390703767
29.02857142857143,0.029466714154277495
29.142857142857142,0.029119543581079443
29.257142857142856,0.028961208599675613
29.37142857142857,0.028953727411385896
29.485714285714284,0.029055019300023747
29.599999999999998,0.029228251735753937
29.71428571428571,0.02944824211105011
29.82857142857143,0.029703268612513066
29.942857142857143,0.029992218245856444
30.057142857142857,0.03031845842136141
30.17142857142857,0.030682660120328317
30.285714285714285,0.031076837751326424
30.4,0.031481244871948505
30.514285714285712,0.03186480278951699
30.628571428571426,0.03218876465817018
30.74285714285714,0.032412545891753616
30.857142857142858,0.03250020177180777
30.97142857142857,0.032425987526083076
31.085714285714285,0.0321778372282184
31.2,0.03175836033403488
31.314285714285713,0.03118379508024447
31.428571428571427,0.03048187159077683
31.54285714285714,0.02968943592483797
31.657142857142855,0.028850038877902984
31.77142857142857,0.02801095773398324
31.885714285714286,0.0272188787694109
32.0,0.026514028625112613
32.114285714285714,0.025923675072770793
32.22857142857143,0.025456954531735927
32.34285714285714,0.025103219183051913
32.457142857142856,0.024835229113743015
32.57142857142857,0.024616843388561543
32.68571428571428,0.024413127293732326
32.8,0.024199775980376235
32.91428571428571,0.02396890259438098
33.028571428571425,0.02372947855156918
33.14285714285714,0.023502531395159443
33.25714285714285,0.023312899944442907
33.371428571428574,0.023180317532895085
33.48571428571429,0.023112558031278995
33.6,0.023102442997297547
33.714285714285715,0.02312909700991657
33.82857142857143,0.02316250968876852
33.94285714285714,0.023169678501583073
34.05714285714286,0.023120552215434895
34.17142857142857,0.022992530993436587
34.285714285714285,0.02277304430743493
34.4,0.02246034457343595
34.51428571428571,0.022062922931574105
34.628571428571426,0.021597922937607626
34.74285714285714,0.021088808253521687
34.857142857142854,0.020562523957324694
34.97142857142857,0.020046510717279274
35.08571428571428,0.01956605510951295
35.199999999999996,0.019142418178230074
35.31428571428572,0.01879192501823753
35.42857142857143,0.018525843883812947
35.542857142857144,0.018350649853953637
35.65714285714286,0.018268301044473256
35.77142857142857,0.018276413950877073
35.885714285714286,0.01836850298144245
36.0,0.018534524470939118
36.114285714285714,0.01876176435126385
36.22857142857143,0.01903577258463649
36.34285714285714,0.01934084377158526
36.457142857142856,0.019659681806442324
36.57142857142857,0.019972364642930236
36.68571428571428,0.020255305730030506
36.8,0.020481243401873486
36.91428571428571,0.020621115948790597
37.028571428571425,0.020647978129162015
37.14285714285714,0.02054214275909346
37.25714285714285,0.020295924604480153
37.371428571428574,0.019916144160204062
37.48571428571429,0.01942311924572189
37.6,0.01884609274052091
37.714285714285715,0.018216451248196566
37.82857142857143,0.01756107104150835
37.94285714285714,0.016898200399046857
38.05714285714286,0.01623734190174686
38.17142857142857,0.015582988066732886
38.285714285714285,0.01494047066673586
38.4,0.014321309435201353
38.51428571428571,0.01374567705949149
38.628571428571426,0.013240821616561043
38.74285714285714,0.012835949435001328
38.857142857142854,0.01255544332258619
38.97142857142857,0.01241281651858481
39.08571428571428,0.012407338642070958
39.199999999999996,0.01252411837682511
39.31428571428571,0.012737156383309085
39.42857142857143,0.013014037297918096
39.542857142857144,0.013320787662561527
39.65714285714286,0.013625896935356941
39.77142857142857,0.01390321449516718
39.885714285714286,0.014133969830636993
40.0,0.014308255837096929
40.114285714285714,0.014425995960646542
40.22857142857143,0.014496966475591216
40.34285714285714,0.014539228517825433
40.457142857142856,0.01457557543913306
40.57142857142857,0.014628287405810184
40.68571428571428,0.014713310320072642
40.8,0.014835521217517814
40.91428571428571,0.014986677551431911
41.028571428571425,0.015146909104222197
41.14285714285714,0.015289452759451646
41.25714285714285,0.015387221379816879
41.371428571428574,0.015419208316497214
41.48571428571429,0.015374904188434655
41.6,0.015255742994178902
41.714285714285715,0.01507370449029816
41.82857142857143,0.01484808458977231
41.94285714285714,0.014601757075008194
42.05714285714286,0.014357948413393289
42.17142857142857,0.014137896018763805
42.285714285714285,0.01395916106605426
42.4,0.013834136832619023
42.51428571428571,0.013768505836252047
42.628571428571426,0.013759870858610464
42.74285714285714,0.013797200632750771
42.857142857142854,0.013861818909844375
42.97142857142857,0.01393033019285318
43.08571428571428,0.013979228494228267
43.199999999999996,0.013990233459070507
43.31428571428571,0.013954930762572862
43.42857142857143,0.01387727325461682
43.542857142857144,0.013772983336057934
43.65714285714286,0.013665760401054494
43.77142857142857,0.013581165212947294
43.885714285714286,0.013539794115133206
44.0,0.013551607110042923
44.114285714285714,0.013612947933095254
44.22857142857143,0.013707014588107328
44.34285714285714,0.013807581741514502
44.457142857142856,0.01388495212822787
44.57142857142857,0.013912647180239678
44.68571428571428,0.013873310056067865
44.8,0.01376261388625571
44.91428571428571,0.013590485902772946
45.028571428571425,0.013379510051311102
45.14285714285714,0.013160849636526079
45.25714285714285,0.012968408148704633
45.37142857142857,0.012832239783325733
45.48571428571429,0.012772437613407912
45.6,0.012794809050546006
45.714285714285715,0.012889477266741554
45.82857142857143,0.013033020616185699
45.94285714285714,0.013193899724705489
46.05714285714286,0.013339932792736812
46.17142857142857,0.013445821575653867
46.285714285714285,0.013498560254803966
46.4,0.013499144079824065
46.51428571428571,0.01346019078164554
46.628571428571426,0.013400466845905276
46.74285714285714,0.013338332511650215
46.857142857142854,0.013286373027139035
46.97142857142857,0.013248878732337023
47.08571428571428,0.01322264722392993
47.199999999999996,0.013200320810967453
47.31428571428571,0.013174659975452398
47.42857142857143,0.013142082909033043
47.542857142857144,0.013104431028991025
47.65714285714286,0.013068927741780673
47.77142857142857,0.013047259235080565
47.885714285714286,0.013055302061844468
48.0,0.013115152069437289
48.114285714285714,0.013260857364180291
48.22857142857143,0.013548734223400794
48.34285714285714,0.014072298186276908
48.457142857142856,0.014980390809635272
48.57142857142857,0.016494680073707007
48.68571428571428,0.018919378226369063
48.8,0.02263266633973665
48.91428571428571,0.028048000879656615
49.028571428571425,0.03553694835407639
49.14285714285714,0.04531546341340522
49.25714285714285,0.05731189589322825
49.37142857142857,0.07105264465103174
49.48571428571429,0.08561184713626607
49.6,0.09966609490461759
49.714285714285715,0.1116700243426644
49.82857142857143,0.1201289254344376
49.94285714285714,0.12390455714147808
50.05714285714286,0.12246816094077718
50.17142857142857,0.11602293519622622
50.285714285714285,0.1054567890472151
50.4,0.0921406442587063
50.51428571428571,0.0776357402139126
50.628571428571426,0.06339625742025719
50.74285714285714,0.050544219663083284
50.857142857142854,0.03975961930087453
50.97142857142857,0.031286786426290354
51.08571428571428,0.025025102905542433
51.199999999999996,0.02065784137357532
51.31428571428571,0.017777072499798027
51.42857142857142,0.01597810397322975
51.542857142857144,0.01491473642609737
51.65714285714286,0.014320063487681677
51.77142857142857,0.014004054264444515
51.885714285714286,0.013839652781320832
52.0,0.013746172085302166
52.114285714285714,0.013674876602502163
52.22857142857143,0.013598440710932407
52.34285714285714,0.013504026346543749
52.457142857142856,0.013388919758980454
52.57142857142857,0.01325759558110922
52.68571428571428,0.013119331450887286
52.8,0.012985829035876403
52.91428571428571,0.012868621010998019
53.028571428571425,0.012776355807214762
53.14285714285714,0.012712337488883486
53.25714285714285,0.012672883308589842
53.37142857142857,0.012647047887213715
53.48571428571429,0.012618006178503054
53.6,0.012565952461971246
53.714285714285715,0.012471918559020512
53.82857142857143,0.012321618168942658
53.94285714285714,0.012108397407666834
54.05714285714286,0.011834619856130326
54.17142857142857,0.011511248589967622
54.285714285714285,0.011155866134325045
54.4,0.010789749459281406
54.51428571428571,0.010434782021293668
54.628571428571426,0.01011090161038409
54.74285714285714,0.009834502524605118
54.857142857142854,0.009617854097953056
54.97142857142857,0.009469301205692917
55.08571428571428,0.009393864391709283
