Frequency,PSD
6.057142857142857,0.1686654847669138
6.171428571428571,0.1709711073497218
6.285714285714286,0.17552167765590848
6.3999999999999995,0.18221386918802218
6.514285714285714,0.19087228309553064
6.628571428571428,0.20109148079062555
6.742857142857143,0.2119597378743067
6.857142857142857,0.22186000065187267
6.9714285714285715,0.2286670043377709
7.085714285714285,0.2305028725371906
7.2,0.22674739210391853
7.314285714285714,0.21858858893251
7.428571428571428,0.20856998057149312
7.542857142857143,0.19937291803701462
7.657142857142857,0.1927439691481625
7.771428571428571,0.18931245105561542
7.885714285714285,0.18921439550224242
8.0,0.1927995512045887
8.114285714285714,0.20076470074831837
8.228571428571428,0.21361732757122537
8.342857142857143,0.23097796902562392
8.457142857142857,0.2515416844121136
8.571428571428571,0.2742129028184862
8.685714285714285,0.2998987775263242
8.799999999999999,0.33239240518537166
8.914285714285715,0.3769483263698832
9.028571428571428,0.43691875885544007
9.142857142857142,0.5107815818171215
9.257142857142856,0.5920393923450931
9.371428571428572,0.672305187788174
9.485714285714286,0.7451742194024917
9.6,0.8077377349250793
9.714285714285714,0.8586943596956336
9.828571428571427,0.8951374502762497
9.942857142857143,0.9113478323333496
10.057142857142857,0.9011533831246549
10.17142857142857,0.8622650167037627
10.285714285714285,0.79919198951382
10.4,0.7222918646448068
10.514285714285714,0.6433706671194801
10.628571428571428,0.5707541040731026
10.742857142857142,0.5069837442778784
10.857142857142858,0.45016422960717456
10.971428571428572,0.3973314675388129
11.085714285714285,0.34718042383185127
11.2,0.300622832238799
11.314285714285713,0.259573674440131
11.428571428571429,0.22539661434484395
11.542857142857143,0.19811418935828592
11.657142857142857,0.176574630108399
11.77142857142857,0.1591452318126586
11.885714285714286,0.14441324770409641
12.0,0.13157634572709112
12.114285714285714,0.12044642524284066
12.228571428571428,0.11118407785446063
12.342857142857142,0.10398556211211106
12.457142857142857,0.09890917077330254
12.571428571428571,0.0958694182805657
12.685714285714285,0.09467320403354865
12.799999999999999,0.09496603506336478
12.914285714285715,0.09610879587767263
13.028571428571428,0.09715541047685565
13.142857142857142,0.09706601792732028
13.257142857142856,0.09507548231777642
13.371428571428572,0.09096645829840844
13.485714285714286,0.08506921645037065
13.6,0.07805523630187898
13.714285714285714,0.07073730979263398
13.828571428571427,0.06399015272327388
13.942857142857143,0.058708306536200516
14.057142857142857,0.055662493044216006
14.17142857142857,0.0552481672782343
14.285714285714285,0.05727383153439716
14.4,0.06095384533732552
14.514285714285714,0.06515750627296356
14.628571428571428,0.0688268053088779
14.742857142857142,0.07137771685166477
14.857142857142856,0.07287142721704162
14.971428571428572,0.07383099651455693
15.085714285714285,0.0747993921762974
15.2,0.07594614473555693
15.314285714285713,0.07701421963827718
15.428571428571429,0.07762376041745414
15.542857142857143,0.07765411228069342
15.657142857142857,0.07737556508677279
15.77142857142857,0.07722609759831725
15.885714285714284,0.07742534991030696
16.0,0.07775041088198353
16.114285714285714,0.07766388762428329
16.228571428571428,0.07669288407771221
16.34285714285714,0.0747570282605145
16.457142857142856,0.07220790557894101
16.57142857142857,0.06959778451449497
16.685714285714287,0.06740049220656913
16.8,0.06589296309570955
16.914285714285715,0.06521884250775806
17.02857142857143,0.06548820644840864
17.142857142857142,0.06677029217924726
17.257142857142856,0.06897892100403524
17.37142857142857,0.07177024431701864
17.485714285714284,0.07456131597840575
17.599999999999998,0.07668198499427199
17.714285714285715,0.07759674721786976
17.82857142857143,0.07711316252433419
17.942857142857143,0.07549995239922543
18.057142857142857,0.07345313636631487
18.17142857142857,0.07188675483036644
18.285714285714285,0.07159780116823115
18.4,0.07294196627178738
18.514285714285712,0.07569338745195156
18.628571428571426,0.07917821853984203
18.742857142857144,0.08259300300478939
18.857142857142858,0.08529697121374887
18.97142857142857,0.0869293011904894
19.085714285714285,0.08737646079581536
19.2,0.08670980206790414
19.314285714285713,0.0851580371793116
19.428571428571427,0.08308130450917567
19.54285714285714,0.08089344578014249
19.657142857142855,0.07893775893807888
19.771428571428572,0.07738036887234731
19.885714285714286,0.07618574232106032
20.0,0.07518605508891453
20.114285714285714,0.0742012577496429
20.228571428571428,0.073154776144948
20.34285714285714,0.07215278695994543
20.457142857142856,0.07150351870639557
20.57142857142857,0.07163114736692941
20.685714285714287,0.07284988885745454
20.8,0.07507172269163437
20.914285714285715,0.07765563435663055
21.02857142857143,0.07958367680990863
21.142857142857142,0.07990634166828643
21.257142857142856,0.07815334402997975
21.37142857142857,0.07443965736152858
21.485714285714284,0.06928572351707304
21.599999999999998,0.06338153733795238
21.714285714285715,0.05744565050536794
21.82857142857143,0.05213350395888889
21.942857142857143,0.047909754789822324
22.057142857142857,0.04491927524631011
22.17142857142857,0.04296455623923559
22.285714285714285,0.04162952135784566
22.4,0.04048384341212079
22.514285714285712,0.03926582896376111
22.628571428571426,0.03796835600804175
22.742857142857144,0.036793978551816986
22.857142857142858,0.03599766499184871
22.97142857142857,0.03570132578673925
23.085714285714285,0.03580041619334835
23.2,0.03603690435722084
23.314285714285713,0.03619426230620938
23.428571428571427,0.03626289011316889
23.54285714285714,0.03642828141371272
23.657142857142855,0.036874550494802774
23.771428571428572,0.037567093647339594
23.885714285714286,0.03821203879717628
24.0,0.03843500247572644
24.114285714285714,0.038026884811175776
24.228571428571428,0.037063089879309404
24.34285714285714,0.03583191592108705
24.457142857142856,0.0346550564917928
24.57142857142857,0.0337255111693057
24.685714285714283,0.03304275704567432
24.8,0.03246314931898003
24.914285714285715,0.03182908868512572
25.02857142857143,0.031092736705855425
25.142857142857142,0.03034413164307235
25.257142857142856,0.029725350765103215
25.37142857142857,0.02931453259136822
25.485714285714284,0.029088181058304994
25.599999999999998,0.028981667332232515
25.71428571428571,0.02896371997238903
25.82857142857143,0.029039749615015743
25.942857142857143,0.029196515667199358
26.057142857142857,0.029377112737894177
26.17142857142857,0.029541314395863518
26.285714285714285,0.029763403246376725
26.4,0.030261591445642413
26.514285714285712,0.03129771914205306
26.628571428571426,0.03299033057791
26.742857142857144,0.03516470052795209
26.857142857142858,0.037360762502616926
26.97142857142857,0.039024999485253675
27.085714285714285,0.03977872421672915
27.2,0.039585257727500725
27.314285714285713,0.0387048560299705
27.428571428571427,0.03748650649173096
27.54285714285714,0.036164179804915694
27.657142857142855,0.03479849142207355
27.771428571428572,0.03336443046350662
27.885714285714286,0.03186987779557054
28.0,0.030402689685119874
28.114285714285714,0.029105670857031196
28.228571428571428,0.02813773630756454
28.34285714285714,0.02764211800297484
28.457142857142856,0.027691950971866285
28.57142857142857,0.028209653700538403
28.685714285714283,0.028925296705978723
28.8,0.029446231057048237
28.914285714285715,0.02942777369432147
29.02857142857143,0.02874572547519824
29.142857142857142,0.027562437816282738
29.257142857142856,0.026247314944497502
29.37142857142857,0.025197705667571985
29.485714285714284,0.024658334904834326
29.599999999999998,0.024638205221369575
29.71428571428571,0.024966451331404717
29.82857142857143,0.025434834992446878
29.942857142857143,0.025915171958876465
30.057142857142857,0.02637935828074601
30.17142857142857,0.026855929056922974
30.285714285714285,0.027412243756219753
30.4,0.02818511178919289
30.514285714285712,0.029372732088980585
30.628571428571426,0.031097669479135136
30.74285714285714,0.033195210555474294
30.857142857142858,0.03512837925581287
30.97142857142857,0.036188631978549934
31.085714285714285,0.03590100148422418
31.2,0.034339233010872744
31.314285714285713,0.03209967899044834
31.428571428571427,0.02995309927254015
31.54285714285714,0.028433665554852383
31.657142857142855,0.027633511352146797
31.77142857142857,0.02728737031824351
31.885714285714286,0.027036289386598574
32.0,0.026682281007554536
32.114285714285714,0.026293768843826757
32.22857142857143,0.026130034800477896
32.34285714285714,0.026453134582549276
32.457142857142856,0.027345299398806873
32.57142857142857,0.028635379622817866
32.68571428571428,0.029971719333155455
32.8,0.03099410264935083
32.91428571428571,0.03149964915005881
33.028571428571425,0.03150406906348683
33.14285714285714,0.031169918734768664
33.25714285714285,0.03066036731194616
33.371428571428574,0.03002063786661728
33.48571428571429,0.02916362702800178
33.6,0.027962797822963844
33.714285714285715,0.026383088735435975
33.82857142857143,0.024557443698856856
33.94285714285714,0.02276094487829692
34.05714285714286,0.021310612589400504
34.17142857142857,0.020457524890813546
34.285714285714285,0.020310298365953293
34.4,0.020787127311291575
34.51428571428571,0.021601584380594743
34.628571428571426,0.022324334902974217
34.74285714285714,0.022545281714192147
34.857142857142854,0.02207057137314413
34.97142857142857,0.02102378264112033
35.08571428571428,0.019774484060738493
35.199999999999996,0.01874956461335439
35.31428571428572,0.018259313895862793
35.42857142857143,0.018423126922100776
35.542857142857144,0.019177338160599775
35.65714285714286,0.020304087354198024
35.77142857142857,0.02146613836012756
35.885714285714286,0.022289448251330137
36.0,0.02251167460752834
36.114285714285714,0.022123680171299252
36.22857142857143,0.02138607135937866
36.34285714285714,0.020679800737435427
36.457142857142856,0.02028360022452651
36.57142857142857,0.020228441790314765
36.68571428571428,0.02031276995706221
36.8,0.0202459135375857
36.91428571428571,0.019817060176894084
37.028571428571425,0.01899402271955268
37.14285714285714,0.017911662814958297
37.25714285714285,0.01677558834624289
37.371428571428574,0.015752717691084432
37.48571428571429,0.014920993966327987
37.6,0.014298687927743046
37.714285714285715,0.013906848308790767
37.82857142857143,0.013799477993409172
37.94285714285714,0.014042254367891041
38.05714285714286,0.014674994710081253
38.17142857142857,0.015695243452407706
38.285714285714285,0.017063396122022713
38.4,0.018709772526710966
38.51428571428571,0.020535806419933435
38.628571428571426,0.02241282450185438
38.74285714285714,0.02418000832929397
38.857142857142854,0.025650038270878868
38.97142857142857,0.026645405375809797
39.08571428571428,0.027071164832734244
39.199999999999996,0.026976824464676794
39.31428571428571,0.026539372937286816
39.42857142857143,0.025961969501486163
39.542857142857144,0.025368815802743017
39.65714285714286,0.02478124804680019
39.77142857142857,0.024176052630916836
39.885714285714286,0.023553539989555825
40.0,0.022953290782665073
40.114285714285714,0.02241963571647944
40.22857142857143,0.02196300679360452
40.34285714285714,0.02155523850819577
40.457142857142856,0.02115939023774936
40.57142857142857,0.020766147007325198
40.68571428571428,0.020408880059566967
40.8,0.020150657499689667
40.91428571428571,0.02005689158005527
41.028571428571425,0.02016899812498321
41.14285714285714,0.02048040057816637
41.25714285714285,0.020911805863491333
41.371428571428574,0.021304002502901806
41.48571428571429,0.02146396073545958
41.6,0.021267501375103033
41.714285714285715,0.020754520837909435
41.82857142857143,0.020130931323408156
41.94285714285714,0.019657252833105106
42.05714285714286,0.019497744624503117
42.17142857142857,0.01963586792149794
42.285714285714285,0.01990915003278381
42.4,0.02012920386491268
42.51428571428571,0.02019625099741245
42.628571428571426,0.020129617960825255
42.74285714285714,0.020006059316740966
42.857142857142854,0.019870658617010536
42.97142857142857,0.019700046080474924
43.08571428571428,0.019443649016656343
43.199999999999996,0.019095536931677308
43.31428571428571,0.018723805562787032
43.42857142857143,0.018429605610853918
43.542857142857144,0.01827949688703396
43.65714285714286,0.018279977847290265
43.77142857142857,0.018414761456387867
43.885714285714286,0.018695091488673054
44.0,0.019157749664945604
44.114285714285714,0.0198018856479062
44.22857142857143,0.02052430921661332
44.34285714285714,0.021122335484387827
44.457142857142856,0.021375577803036897
44.57142857142857,0.0211514701371878
44.68571428571428,0.02046470962399599
44.8,0.019462630661379595
44.91428571428571,0.018360090035349375
45.028571428571425,0.017366961234696335
45.14285714285714,0.01663877382373218
45.25714285714285,0.016260015342763487
45.37142857142857,0.016253376955080032
45.48571428571429,0.016597229087539352
45.6,0.01723251991903612
45.714285714285715,0.01805567571099891
45.82857142857143,0.01891589298530311
45.94285714285714,0.019638877740658298
46.05714285714286,0.020075688366454077
46.17142857142857,0.020148705781373316
46.285714285714285,0.01986690525138249
46.4,0.01930832255565762
46.51428571428571,0.018590337930428517
46.628571428571426,0.01784836469310463
46.74285714285714,0.017226114748460402
46.857142857142854,0.01686299742285799
46.97142857142857,0.01686235036926365
47.08571428571428,0.01724483329586512
47.199999999999996,0.017919449035300662
47.31428571428571,0.01870860572460674
47.42857142857143,0.019429371792071878
47.542857142857144,0.019986107838598922
47.65714285714286,0.020412229886328924
47.77142857142857,0.020830912365395093
47.885714285714286,0.021364834493320224
48.0,0.022061967953162703
48.114285714285714,0.02288049539834023
48.22857142857143,0.02371774522036265
48.34285714285714,0.02444626745368517
48.457142857142856,0.024957502893248554
48.57142857142857,0.02524671857645799
48.68571428571428,0.025547619591580056
48.8,0.026493309707836445
48.91428571428571,0.029330734085405173
49.028571428571425,0.03629359584478224
49.14285714285714,0.051105011026747464
49.25714285714285,0.07907114836123952
49.37142857142857,0.12567203113393977
49.48571428571429,0.19288653864308103
49.6,0.274422216683323
49.714285714285715,0.3535528514356141
49.82857142857143,0.4074305693841601
49.94285714285714,0.4175174130405479
50.05714285714286,0.3798695565270681
50.17142857142857,0.30757590929458484
50.285714285714285,0.2233454342219503
50.4,0.1479511919137137
50.51428571428571,0.09248514949101291
50.628571428571426,0.05784614529107178
50.74285714285714,0.03904455283870252
50.857142857142854,0.02991937111170121
50.97142857142857,0.02572428498120421
51.08571428571428,0.02360481144380148
51.199999999999996,0.022109714715026124
51.31428571428571,0.020633742555363006
51.42857142857142,0.019068433445019406
51.542857142857144,0.017585269232658515
51.65714285714286,0.01645250930676484
51.77142857142857,0.015885219497895182
51.885714285714286,0.015969954353614292
52.0,0.016665500623564124
52.114285714285714,0.017835853245890303
52.22857142857143,0.019279288250597264
52.34285714285714,0.02075609331707781
52.457142857142856,0.022031363250476638
52.57142857142857,0.02292482331667336
52.68571428571428,0.02333763237378099
52.8,0.023243666427399397
52.91428571428571,0.02267138679145384
53.028571428571425,0.021708736489490392
53.14285714285714,0.020522699829633378
53.25714285714285,0.019348998158735756
53.37142857142857,0.018428105095492434
53.48571428571429,0.017920397494148477
53.6,0.017858767102729455
53.714285714285715,0.018165773083588174
53.82857142857143,0.01871233170963091
53.94285714285714,0.019370644601041886
54.05714285714286,0.020027094142771297
54.17142857142857,0.020559787166254607
54.285714285714285,0.020824095049037542
54.4,0.0206886207963252
54.51428571428571,0.020110349840677062
54.628571428571426,0.01918347165964627
54.74285714285714,0.018110421766763453
54.857142857142854,0.017116298003370663
54.97142857142857,0.016374320275297494
55.08571428571428,0.01598328997522893
