Frequency,PSD
6.057142857142857,0.18779002942649858
6.171428571428571,0.19334109647787545
6.285714285714286,0.20180471706444994
6.3999999999999995,0.20902990442031114
6.514285714285714,0.21144950238796745
6.628571428571428,0.20831937458199912
6.742857142857143,0.2024508693851842
6.857142857142857,0.1982778530403352
6.9714285714285715,0.1984109295812031
7.085714285714285,0.20162766197322562
7.2,0.2040304758794176
7.314285714285714,0.20211963347532425
7.428571428571428,0.19513419945377877
7.542857142857143,0.18516895184361826
7.657142857142857,0.17548034201382315
7.771428571428571,0.1684024378200214
7.885714285714285,0.1642111708588085
8.0,0.1615306130346264
8.114285714285714,0.15882899892585248
8.228571428571428,0.15575911921291616
8.342857142857143,0.15329065404562905
8.457142857142857,0.15270311576152962
8.571428571428571,0.15445806631205683
8.685714285714285,0.15792003335230237
8.799999999999999,0.1620899111768031
8.914285714285715,0.16663598518969003
9.028571428571428,0.17218119826150352
9.142857142857142,0.1794536150829238
9.257142857142856,0.18814934697574934
9.371428571428572,0.19688660694771892
9.485714285714286,0.20455848901763382
9.6,0.21172287448195581
9.714285714285714,0.2205234470997975
9.828571428571427,0.2333763073403114
9.942857142857143,0.2519412544902421
10.057142857142857,0.276995843902656
10.17142857142857,0.3083167895814316
10.285714285714285,0.34385830998777134
10.4,0.37894172205645626
10.514285714285714,0.40681067202132104
10.628571428571428,0.42112655466014864
10.742857142857142,0.4194266404110997
10.857142857142858,0.40513277291073935
10.971428571428572,0.3858729969326402
11.085714285714285,0.368574282602006
11.2,0.3549386276550335
11.314285714285713,0.3410179792469597
11.428571428571429,0.32114319159525917
11.542857142857143,0.2927869245342223
11.657142857142857,0.25852242645966234
11.77142857142857,0.22412597655595595
11.885714285714286,0.19499028024389273
12.0,0.1736666900478691
12.114285714285714,0.15970901203929885
12.228571428571428,0.15109019721960945
12.342857142857142,0.14580477869919994
12.457142857142857,0.14276865812331527
12.571428571428571,0.14182669736230505
12.685714285714285,0.143097415333209
12.799999999999999,0.14620345961212688
12.914285714285715,0.15004892502959877
13.028571428571428,0.153361938803921
13.142857142857142,0.1554889662901356
13.257142857142856,0.1565773897967817
13.371428571428572,0.1567487410419407
13.485714285714286,0.1550468805176789
13.6,0.14966137722630124
13.714285714285714,0.139719460989445
13.828571428571427,0.1267799776364732
13.942857142857143,0.11411007843770701
14.057142857142857,0.10436930105176276
14.17142857142857,0.09809959271141044
14.285714285714285,0.09421483103382036
14.4,0.09146375788025964
14.514285714285714,0.08932515198653858
14.628571428571428,0.08793881978409082
14.742857142857142,0.08770062346086346
14.857142857142856,0.08906370330300556
14.971428571428572,0.09239810221712252
15.085714285714285,0.09756177568051584
15.2,0.10345060229883399
15.314285714285713,0.1082772817746288
15.428571428571429,0.1107256024238032
15.542857142857143,0.11100336539441662
15.657142857142857,0.11066847178621517
15.77142857142857,0.1112991558954289
15.885714285714284,0.11327991363050739
16.0,0.11579336239527073
16.114285714285714,0.11781124718898724
16.228571428571428,0.11898636475610899
16.34285714285714,0.11970891707776661
16.457142857142856,0.12051061153184618
16.57142857142857,0.12145233782825249
16.685714285714287,0.12197067486551066
16.8,0.12126391472951903
16.914285714285715,0.11889285641135633
17.02857142857143,0.11506102490700942
17.142857142857142,0.11033276469857307
17.257142857142856,0.10517217041500812
17.37142857142857,0.0998399094938742
17.485714285714284,0.09460556046625991
17.599999999999998,0.08982571423071357
17.714285714285715,0.08581484541638029
17.82857142857143,0.08280667913230755
17.942857142857143,0.080986608508238
18.057142857142857,0.0803112606498839
18.17142857142857,0.08025011615733996
18.285714285714285,0.07989748908695707
18.4,0.07846187686923145
18.514285714285712,0.07566787549698095
18.628571428571426,0.07180043782555263
18.742857142857144,0.06755222237706293
18.857142857142858,0.06388933189451763
18.97142857142857,0.061891075623056624
19.085714285714285,0.06237420079649868
19.2,0.06534511315981151
19.314285714285713,0.06972056506806051
19.428571428571427,0.07375323894737378
19.54285714285714,0.0760204801705573
19.657142857142855,0.07626973978344748
19.771428571428572,0.07547007098627656
19.885714285714286,0.07501028877350312
20.0,0.07561840261010057
20.114285714285714,0.07682854165195165
20.228571428571428,0.07743473147846135
20.34285714285714,0.07651143411664163
20.457142857142856,0.07403351100577
20.57142857142857,0.07058632284085849
20.685714285714287,0.06667760527952717
20.8,0.0625027184600989
20.914285714285715,0.05829265360400875
21.02857142857143,0.05462802706527408
21.142857142857142,0.052245554555733584
21.257142857142856,0.05151019754429505
21.37142857142857,0.052062416425033994
21.485714285714284,0.05298334604309344
21.599999999999998,0.05338122260009199
21.714285714285715,0.05292008890524196
21.82857142857143,0.0518758442772575
21.942857142857143,0.05079496269716109
22.057142857142857,0.05014740671844451
22.17142857142857,0.05017826558475595
22.285714285714285,0.05089761609638416
22.4,0.052172307719689885
22.514285714285712,0.05392100702895966
22.628571428571426,0.056230518609220424
22.742857142857144,0.05915721750255315
22.857142857142858,0.062329407130957304
22.97142857142857,0.06481708498650272
23.085714285714285,0.06555436689237884
23.2,0.06403415487411987
23.314285714285713,0.06068676329063345
23.428571428571427,0.056631175599751005
23.54285714285714,0.05302981958265083
23.657142857142855,0.05054675213503776
23.771428571428572,0.04921311244803726
23.885714285714286,0.048626532930251515
24.0,0.04825802934036326
24.114285714285714,0.047752959745817
24.228571428571428,0.04716432716266064
24.34285714285714,0.04694439578489741
24.457142857142856,0.047583711672002545
24.57142857142857,0.049136870044949495
24.685714285714283,0.05106476548054732
24.8,0.05254595795184115
24.914285714285715,0.05297249128983257
25.02857142857143,0.05221006397134579
25.142857142857142,0.05047241524333494
25.257142857142856,0.04805413949639119
25.37142857142857,0.04526507988226405
25.485714285714284,0.04257794824874795
25.599999999999998,0.04064613170330672
25.71428571428571,0.039974893417993485
25.82857142857143,0.04051565610110129
25.942857142857143,0.04163926242724035
26.057142857142857,0.04253742750663137
26.17142857142857,0.04263194496477794
26.285714285714285,0.041662328094405204
26.4,0.039593018174735026
26.514285714285712,0.03663093867884273
26.628571428571426,0.033313753708606134
26.742857142857144,0.030395626022941824
26.857142857142858,0.02850131535670524
26.97142857142857,0.027866970818278772
27.085714285714285,0.028408900040754644
27.2,0.029947868298141903
27.314285714285713,0.03224618521215613
27.428571428571427,0.034849867312941145
27.54285714285714,0.037091562033605176
27.657142857142855,0.03842731825361259
27.771428571428572,0.038772678275833306
27.885714285714286,0.03842690521074959
28.0,0.03767977240146085
28.114285714285714,0.03657560639904102
28.228571428571428,0.03505358857956756
28.34285714285714,0.033197902875677324
28.457142857142856,0.031270112729375105
28.57142857142857,0.029535071002031565
28.685714285714283,0.028113222918044
28.8,0.026991864046243992
28.914285714285715,0.02614806741241012
29.02857142857143,0.02566112962354294
29.142857142857142,0.025693587285354237
29.257142857142856,0.026307691797583313
29.37142857142857,0.027269182590914393
29.485714285714284,0.02807399219554247
29.599999999999998,0.028237753127628565
29.71428571428571,0.02760322671764942
29.82857142857143,0.026397591925656626
29.942857142857143,0.02503433348506178
30.057142857142857,0.02387963867846241
30.17142857142857,0.02315476254057229
30.285714285714285,0.022941333599884695
30.4,0.023170655684297967
30.514285714285712,0.02359538505549742
30.628571428571426,0.023865505760109547
30.74285714285714,0.023744040017679713
30.857142857142858,0.023289684209743235
30.97142857142857,0.022809647060791555
31.085714285714285,0.022617991105704977
31.2,0.02283052124773383
31.314285714285713,0.023350874885302964
31.428571428571427,0.023982128327688992
31.54285714285714,0.024507914283880203
31.657142857142855,0.02469846201923056
31.77142857142857,0.024332918825230226
31.885714285714286,0.023302792714765815
32.0,0.021718724470121728
32.114285714285714,0.019897622594071553
32.22857142857143,0.018225246719525804
32.34285714285714,0.01700478820737547
32.457142857142856,0.016384237827349966
32.57142857142857,0.016365641740519597
32.68571428571428,0.016847687192551208
32.8,0.01766383150094562
32.91428571428571,0.018614800543594254
33.028571428571425,0.019513738476649334
33.14285714285714,0.020246474095389797
33.25714285714285,0.020818312092320844
33.371428571428574,0.021343777597268986
33.48571428571429,0.02195517246264235
33.6,0.022664419790774687
33.714285714285715,0.023274497446438506
33.82857142857143,0.02342904344281223
33.94285714285714,0.022797657131761885
34.05714285714286,0.02129783487421766
34.17142857142857,0.019218255888180255
34.285714285714285,0.01714275407948404
34.4,0.015685567430708654
34.51428571428571,0.015195287604367731
34.628571428571426,0.015626903329763745
34.74285714285714,0.016635389957263446
34.857142857142854,0.017758757758752106
34.97142857142857,0.01855318415709677
35.08571428571428,0.01868761293576378
35.199999999999996,0.018058097165694786
35.31428571428572,0.016873523552374148
35.42857142857143,0.015597779722426283
35.542857142857144,0.014736047965284127
35.65714285714286,0.014590974265426626
35.77142857142857,0.015136590050267209
35.885714285714286,0.016075499544366007
36.0,0.017028737280705135
36.114285714285714,0.017720336715739325
36.22857142857143,0.018039409813344162
36.34285714285714,0.01799114497628328
36.457142857142856,0.017636940903636638
36.57142857142857,0.01707274090504179
36.68571428571428,0.01641301773739179
36.8,0.015761438041493873
36.91428571428571,0.015192639743147381
37.028571428571425,0.014748109923113756
37.14285714285714,0.014426718610998748
37.25714285714285,0.01418952008362782
37.371428571428574,0.014008277835853997
37.48571428571429,0.013913242233945158
37.6,0.01396309169823615
37.714285714285715,0.014155880501476894
37.82857142857143,0.014393050363389465
37.94285714285714,0.01455126801626347
38.05714285714286,0.014584811013921397
38.17142857142857,0.014554009333373212
38.285714285714285,0.014570500239122753
38.4,0.01472483542729864
38.51428571428571,0.015039248364063864
38.628571428571426,0.01544579022266808
38.74285714285714,0.01580135795809644
38.857142857142854,0.015961808436586754
38.97142857142857,0.015880985800073452
39.08571428571428,0.015642141027375194
39.199999999999996,0.015375176720560891
39.31428571428571,0.015132962376334852
39.42857142857143,0.014849401746153935
39.542857142857144,0.014417397814887834
39.65714285714286,0.013808195930068542
39.77142857142857,0.013130486749332228
39.885714285714286,0.012594529665834473
40.0,0.012413069032536467
40.114285714285714,0.012692044892374042
40.22857142857143,0.013364614190313682
40.34285714285714,0.014217648343940504
40.457142857142856,0.015017914916652516
40.57142857142857,0.015654920775992315
40.68571428571428,0.016170071384616107
40.8,0.016639874166572904
40.91428571428571,0.01704416981872755
41.028571428571425,0.017264628156994907
41.14285714285714,0.01719336596723312
41.25714285714285,0.016816161554083893
41.371428571428574,0.016209501340016686
41.48571428571429,0.015503037480190576
41.6,0.014845801725740713
41.714285714285715,0.01435525142131424
41.82857142857143,0.01405600923136284
41.94285714285714,0.013873807613418804
42.05714285714286,0.01371185678169052
42.17142857142857,0.01353519035730677
42.285714285714285,0.013373300945033579
42.4,0.013253162525862044
42.51428571428571,0.013154415197330663
42.628571428571426,0.013036968180017261
42.74285714285714,0.012903325974372153
42.857142857142854,0.012832042711685688
42.97142857142857,0.012948469219775455
43.08571428571428,0.013336562163000807
43.199999999999996,0.013943111642323848
43.31428571428571,0.01456336680251942
43.42857142857143,0.014952428810576218
43.542857142857144,0.014988606246952883
43.65714285714286,0.014752511314386048
43.77142857142857,0.014457129987704122
43.885714285714286,0.014290667569695586
44.0,0.014295516495825649
44.114285714285714,0.014367309242569695
44.22857142857143,0.014358234672250754
44.34285714285714,0.014187554690546268
44.457142857142856,0.01387541163945998
44.57142857142857,0.013505193067391803
44.68571428571428,0.013173650576347494
44.8,0.012959250054912365
44.91428571428571,0.012899987265498462
45.028571428571425,0.012975523953594807
45.14285714285714,0.013105398013391566
45.25714285714285,0.013176821936382187
45.37142857142857,0.01310236882658037
45.48571428571429,0.012878222200818416
45.6,0.012593044442857661
45.714285714285715,0.012369568045351139
45.82857142857143,0.012283886074871703
45.94285714285714,0.012327390969067537
46.05714285714286,0.012437440977411432
46.17142857142857,0.01257461475806988
46.285714285714285,0.012793750080090016
46.4,0.013242841961560536
46.51428571428571,0.01405813227769525
46.628571428571426,0.01521558293104712
46.74285714285714,0.016463528191938033
46.857142857142854,0.017412702672377284
46.97142857142857,0.01773934305695187
47.08571428571428,0.017373544923311626
47.199999999999996,0.016552239750112486
47.31428571428571,0.015699671529416554
47.42857142857143,0.015204576449854687
47.542857142857144,0.015222872607479317
47.65714285714286,0.015615158235597502
47.77142857142857,0.01605307161829954
47.885714285714286,0.01623045113810444
48.0,0.0160376753209096
48.114285714285714,0.015580982984961573
48.22857142857143,0.015068076391937548
48.34285714285714,0.014691203624506937
48.457142857142856,0.014582792404235644
48.57142857142857,0.014791743760449174
48.68571428571428,0.015231251484281644
48.8,0.015674410491092354
48.91428571428571,0.015915906286945416
49.028571428571425,0.016113847336913203
49.14285714285714,0.01726513302166304
49.25714285714285,0.021791804890745923
49.37142857142857,0.033913707211461315
49.48571428571429,0.05864978074265352
49.6,0.0981424610071655
49.714285714285715,0.14650543348221487
49.82857142857143,0.1883854048997014
49.94285714285714,0.2059311701384247
50.05714285714286,0.19078768105058055
50.17142857142857,0.15039539734967647
50.285714285714285,0.10226388888138802
50.4,0.06206693403244045
50.51428571428571,0.03627074305064171
50.628571428571426,0.023106154983193454
50.74285714285714,0.017599199524587907
50.857142857142854,0.015478520934626256
50.97142857142857,0.014417835139270816
51.08571428571428,0.01362708415356151
51.199999999999996,0.01302860216039417
51.31428571428571,0.012658801016946025
51.42857142857142,0.012465211897606989
51.542857142857144,0.012380314493591043
51.65714285714286,0.012429204497663542
51.77142857142857,0.012705839813890148
51.885714285714286,0.013243882883896104
52.0,0.013927626104231063
52.114285714285714,0.01453448143744167
52.22857142857143,0.014861275891722944
52.34285714285714,0.014827203537999248
52.457142857142856,0.01449870584191052
52.57142857142857,0.014043388437389129
52.68571428571428,0.013641841261215497
52.8,0.013403825694466135
52.91428571428571,0.013339431213335595
53.028571428571425,0.013389976167006235
53.14285714285714,0.013475913318024578
53.25714285714285,0.013531208160201244
53.37142857142857,0.013523670949689183
53.48571428571429,0.01345266477429664
53.6,0.013312142642173837
53.714285714285715,0.013054405962317417
53.82857142857143,0.012618925819760304
53.94285714285714,0.012020081832178814
54.05714285714286,0.011393675891499935
54.17142857142857,0.010928984516179135
54.285714285714285,0.01073977515047098
54.4,0.01079052944195852
54.51428571428571,0.010932315860306574
54.628571428571426,0.011010292984988953
54.74285714285714,0.010960916148127997
54.857142857142854,0.01082893075470093
54.97142857142857,0.01070082656950596
55.08571428571428,0.010630841596655574
