Frequency,PSD
6.057142857142857,0.25829838820361783
6.171428571428571,0.25733816877945226
6.285714285714286,0.2564244507658776
6.3999999999999995,0.257118566198007
6.514285714285714,0.26087567508487586
6.628571428571428,0.26849242132321144
6.742857142857143,0.27984794003603136
6.857142857142857,0.2939422548418575
6.9714285714285715,0.30919279081142903
7.085714285714285,0.32399616051322355
7.2,0.33747749026477064
7.314285714285714,0.3501339782891816
7.428571428571428,0.36405098989758955
7.542857142857143,0.3826770407172878
7.657142857142857,0.41042662106097605
7.771428571428571,0.45222036079530203
7.885714285714285,0.5126558649900738
8.0,0.5944568965292428
8.114285714285714,0.6964344133788543
8.228571428571428,0.81193931274476
8.342857142857143,0.9289744070874623
8.457142857142857,1.032477620864091
8.571428571428571,1.1081624260708942
8.685714285714285,1.1464360732432755
8.799999999999999,1.1448613857756147
8.914285714285715,1.108366280182399
9.028571428571428,1.0474269592107683
9.142857142857142,0.9751799780351336
9.257142857142856,0.9045590636281211
9.371428571428572,0.8461492370463547
9.485714285714286,0.8068077759768838
9.6,0.7886776272412793
9.714285714285714,0.7884058534669769
9.828571428571427,0.7971046888049047
9.942857142857143,0.8020878784525071
10.057142857142857,0.7907615313917816
10.17142857142857,0.7553445369644672
10.285714285714285,0.6958396123984517
10.4,0.6193900274356043
10.514285714285714,0.5365370346434449
10.628571428571428,0.4568834797319755
10.742857142857142,0.38657447546184354
10.857142857142858,0.32819136923164965
10.971428571428572,0.2819469684580439
11.085714285714285,0.2467873046674749
11.2,0.22088281893800787
11.314285714285713,0.20185542161377257
11.428571428571429,0.18718466669356446
11.542857142857143,0.1747832616364532
11.657142857142857,0.16339400246908167
11.77142857142857,0.15256935974700703
11.885714285714286,0.14233665738499243
12.0,0.1328442401257352
12.114285714285714,0.12419316863944571
12.228571428571428,0.11644346207406048
12.342857142857142,0.1096608410152204
12.457142857142857,0.10390891233448078
12.571428571428571,0.09920017746081886
12.685714285714285,0.09547092880313376
12.799999999999999,0.09260694653981236
12.914285714285715,0.09048763455974844
13.028571428571428,0.08900672028768247
13.142857142857142,0.088060977901454
13.257142857142856,0.08752327394713463
13.371428571428572,0.0872182955837248
13.485714285714286,0.08692473214198097
13.6,0.08643554668422536
13.714285714285714,0.08567850930377563
13.828571428571427,0.08482931498292114
13.942857142857143,0.08431068096159477
14.057142857142857,0.08462819996457248
14.17142857142857,0.08611369902761533
14.285714285714285,0.08872412016511455
14.4,0.09201303945852708
14.514285714285714,0.09528308309004156
14.628571428571428,0.09782396614788239
14.742857142857142,0.09910973610098897
14.857142857142856,0.09888135214730412
14.971428571428572,0.09712852780992946
15.085714285714285,0.09403624629022021
15.2,0.08994460989144068
15.314285714285713,0.08532012437534137
15.428571428571429,0.0807087087321242
15.542857142857143,0.07665373567661476
15.657142857142857,0.07359043458700598
15.77142857142857,0.07174536363643133
15.885714285714284,0.0710777600798724
16.0,0.07130250749973213
16.114285714285714,0.07201261769880751
16.228571428571428,0.07286039662438194
16.34285714285714,0.07370212646352217
16.457142857142856,0.07462226660681745
16.57142857142857,0.07582783889269923
16.685714285714287,0.07747601869767795
16.8,0.07952493233822154
16.914285714285715,0.08169010584513522
17.02857142857143,0.083551445054506
17.142857142857142,0.08476947561919725
17.257142857142856,0.08526813388986643
17.37142857142857,0.08523003289999076
17.485714285714284,0.08488559219859555
17.599999999999998,0.08426010111964741
17.714285714285715,0.08309682255855014
17.82857142857143,0.08103823020893772
17.942857142857143,0.07794278726433246
18.057142857142857,0.07411548378579362
18.17142857142857,0.07029737045982759
18.285714285714285,0.06741327297918938
18.4,0.06620241761655812
18.514285714285712,0.06689902915158316
18.628571428571426,0.06909986378805057
18.742857142857144,0.07188193056558215
18.857142857142858,0.07413810749284352
18.97142857142857,0.075007443773817
19.085714285714285,0.07422915190059051
19.2,0.07227311250378518
19.314285714285713,0.07018680736041367
19.428571428571427,0.06920719706867232
19.54285714285714,0.07027243691716678
19.657142857142855,0.07361151697467533
19.771428571428572,0.07858414978166575
19.885714285714286,0.08387482154984469
20.0,0.08800106447812342
20.114285714285714,0.08991755561779503
20.228571428571428,0.0894032192026562
20.34285714285714,0.087019409066765
20.457142857142856,0.08369037612536719
20.57142857142857,0.08019008300187003
20.685714285714287,0.07683891170209166
20.8,0.07352523536205824
20.914285714285715,0.0699472367599135
21.02857142857143,0.0658830149144956
21.142857142857142,0.06135338710784401
21.257142857142856,0.05664144098277004
21.37142857142857,0.052194768495176375
21.485714285714284,0.048460354816470694
21.599999999999998,0.04571930501326779
21.714285714285715,0.043995349410559166
21.82857142857143,0.043079045305713146
21.942857142857143,0.04264382255425927
22.057142857142857,0.04238075846330551
22.17142857142857,0.04208581198260137
22.285714285714285,0.04168010754438265
22.4,0.04118351552794412
22.514285714285712,0.04066911298715481
22.628571428571426,0.040212745741229516
22.742857142857144,0.03984186604133505
22.857142857142858,0.03949417477175003
22.97142857142857,0.03901233575773075
23.085714285714285,0.03820109320706486
23.2,0.036937764626596786
23.314285714285713,0.03527511391951266
23.428571428571427,0.033459414462744225
23.54285714285714,0.031835934797650775
23.657142857142855,0.030694035246792782
23.771428571428572,0.0301456821638311
23.885714285714286,0.03010225463444554
24.0,0.03034617415988023
24.114285714285714,0.03064167177452296
24.228571428571428,0.030822727663224594
24.34285714285714,0.0308269630246749
24.457142857142856,0.030682255296538258
24.57142857142857,0.030470653358209924
24.685714285714283,0.030285885227307945
24.8,0.030187533213851488
24.914285714285715,0.03016128263686427
25.02857142857143,0.030112789180616314
25.142857142857142,0.029916679410411033
25.257142857142856,0.029499389790011425
25.37142857142857,0.028895558864650523
25.485714285714284,0.028231939622194547
25.599999999999998,0.02765314891351994
25.71428571428571,0.02724975693343432
25.82857142857143,0.02703715040884493
25.942857142857143,0.026981749007736897
26.057142857142857,0.02703379778145524
26.17142857142857,0.027135187103901098
26.285714285714285,0.0272104905061917
26.4,0.027176058273596343
26.514285714285712,0.026985819117242266
26.628571428571426,0.026686725454351724
26.742857142857144,0.02642916212107438
26.857142857142858,0.026403828952109548
26.97142857142857,0.026738779576551335
27.085714285714285,0.027429348150042172
27.2,0.028349040830861955
27.314285714285713,0.029322768070859647
27.428571428571427,0.030198138832194885
27.54285714285714,0.030867082253139493
27.657142857142855,0.031247595019550465
27.771428571428572,0.03127312501835126
27.885714285714286,0.030917766604746696
28.0,0.030234414346710543
28.114285714285714,0.029359604322329143
28.228571428571428,0.028469059901769612
28.34285714285714,0.027715941154108064
28.457142857142856,0.027195240968695654
28.57142857142857,0.026943815211646557
28.685714285714283,0.026950135580500717
28.8,0.02715277806053705
28.914285714285715,0.027441299657537093
29.02857142857143,0.027688568823417987
29.142857142857142,0.027813645254209044
29.257142857142856,0.027830015519626012
29.37142857142857,0.027828983323318013
29.485714285714284,0.02789628234002555
29.599999999999998,0.028019250731252214
29.71428571428571,0.028057270106275376
29.82857142857143,0.02780444537289588
29.942857142857143,0.027106267050532186
30.057142857142857,0.025954578636523076
30.17142857142857,0.0245040479615267
30.285714285714285,0.02300853297458714
30.4,0.02172157142308982
30.514285714285712,0.02081208895954104
30.628571428571426,0.020323132149764854
30.74285714285714,0.020177294568340012
30.857142857142858,0.020222201718430144
30.97142857142857,0.020302738952998778
31.085714285714285,0.020332555078341794
31.2,0.020326814270828872
31.314285714285713,0.020372995884845507
31.428571428571427,0.020556955058347537
31.54285714285714,0.02089585838453032
31.657142857142855,0.02132378240910804
31.77142857142857,0.02173115940109186
31.885714285714286,0.022016571020731464
32.0,0.022108958822764955
32.114285714285714,0.021957257948484712
32.22857142857143,0.021519058021240402
32.34285714285714,0.020773820992963356
32.457142857142856,0.019750682630938977
32.57142857142857,0.01853970636763415
32.68571428571428,0.017272417214131745
32.8,0.016089416145842615
32.91428571428571,0.015120366187512425
33.028571428571425,0.014477821167708151
33.14285714285714,0.0142439617354372
33.25714285714285,0.014438466042632013
33.371428571428574,0.014986839863489268
33.48571428571429,0.015724445728842122
33.6,0.01645091442942377
33.714285714285715,0.01700950693070188
33.82857142857143,0.01734251581000872
33.94285714285714,0.017488057863060884
34.05714285714286,0.017524898705823792
34.17142857142857,0.01750793383637306
34.285714285714285,0.017439500442479515
34.4,0.01728971506534379
34.51428571428571,0.017040379781061123
34.628571428571426,0.016714311064575684
34.74285714285714,0.016371986797845902
34.857142857142854,0.016085866964878546
34.97142857142857,0.01591236451976777
35.08571428571428,0.015871516965995522
35.199999999999996,0.015935721361216702
35.31428571428572,0.016032265920382847
35.42857142857143,0.016066912652248768
35.542857142857144,0.015963742485421685
35.65714285714286,0.01569986580328373
35.77142857142857,0.015314096394352095
35.885714285714286,0.014888307249094738
36.0,0.014517665210821595
36.114285714285714,0.014285189644559482
36.22857142857143,0.014244365182385428
36.34285714285714,0.014407161141148705
36.457142857142856,0.01473819880391425
36.57142857142857,0.015160966477048324
36.68571428571428,0.015580622229046102
36.8,0.015918395874806326
36.91428571428571,0.016140613696710323
37.028571428571425,0.016262283446174697
37.14285714285714,0.016319634887516938
37.25714285714285,0.01633125986502637
37.371428571428574,0.016281101876083386
37.48571428571429,0.016140723191431266
37.6,0.015912196954090258
37.714285714285715,0.015649775011223818
37.82857142857143,0.015434195169007348
37.94285714285714,0.015317324922276337
38.05714285714286,0.015285072259900844
38.17142857142857,0.015271700093929488
38.285714285714285,0.015212033080367856
38.4,0.015084977293329527
38.51428571428571,0.014913264773800871
38.628571428571426,0.01472702358596397
38.74285714285714,0.014531063680391934
38.857142857142854,0.014308735196515304
38.97142857142857,0.014057586837501492
39.08571428571428,0.013819711208100105
39.199999999999996,0.013672213368320762
39.31428571428571,0.013677958854547301
39.42857142857143,0.013832792951468586
39.542857142857144,0.014052490211793677
39.65714285714286,0.014215723938591128
39.77142857142857,0.01423882558306367
39.885714285714286,0.014132705551172527
40.0,0.01400081394713052
40.114285714285714,0.01397663191868785
40.22857142857143,0.014143256070385371
40.34285714285714,0.014490808164328031
40.457142857142856,0.014935589948226045
40.57142857142857,0.015373950920433654
40.68571428571428,0.015720473667607666
40.8,0.015906301164602687
40.91428571428571,0.01586105161212609
41.028571428571425,0.015519690506871962
41.14285714285714,0.014864768249358699
41.25714285714285,0.013968768402479886
41.371428571428574,0.01299080998220344
41.48571428571429,0.012118184701435032
41.6,0.01148976487036792
41.714285714285715,0.011151715959887683
41.82857142857143,0.011068028470150652
41.94285714285714,0.011167857260189018
42.05714285714286,0.011392060741693107
42.17142857142857,0.011712179578299915
42.285714285714285,0.012120247320563854
42.4,0.012605509639838888
42.51428571428571,0.013135967790062476
42.628571428571426,0.013654944184655972
42.74285714285714,0.014094047779339793
42.857142857142854,0.014396260333124399
42.97142857142857,0.01453664294953195
43.08571428571428,0.014527427611856405
43.199999999999996,0.014402779987628072
43.31428571428571,0.014192281067697333
43.42857142857143,0.013900986225416821
43.542857142857144,0.013510589433370725
43.65714285714286,0.013002338249341197
43.77142857142857,0.012386908080699505
43.885714285714286,0.011720352624277066
44.0,0.011093764698273284
44.114285714285714,0.01060167155727423
44.22857142857143,0.010307430339068979
44.34285714285714,0.010223908066311856
44.457142857142856,0.010316518849070366
44.57142857142857,0.010522724988847128
44.68571428571428,0.010775768390308652
44.8,0.011022522950871517
44.91428571428571,0.011231552893903953
45.028571428571425,0.011392012882237531
45.14285714285714,0.01150554387251814
45.25714285714285,0.011574865211284783
45.37142857142857,0.011595411754554781
45.48571428571429,0.011555651015135232
45.6,0.011444700687574198
45.714285714285715,0.011259099253262043
45.82857142857143,0.011003321308700822
45.94285714285714,0.010688005782280234
46.05714285714286,0.010332348492495537
46.17142857142857,0.009968301661446043
46.285714285714285,0.009637199258649823
46.4,0.00937610003320289
46.51428571428571,0.009203828472516171
46.628571428571426,0.009118643089633055
46.74285714285714,0.009108520070530571
46.857142857142854,0.009165228732985396
46.97142857142857,0.009294145120028373
47.08571428571428,0.009516928189511381
47.199999999999996,0.009864626788311326
47.31428571428571,0.01035735223388386
47.42857142857143,0.01097334512316613
47.542857142857144,0.011624922017360116
47.65714285714286,0.01216584406754792
47.77142857142857,0.012439582964399901
47.885714285714286,0.012347545205907834
48.0,0.011896945705075598
48.114285714285714,0.011199588281698295
48.22857142857143,0.01042612841575168
48.34285714285714,0.009745759699823985
48.457142857142856,0.009279973897621908
48.57142857142857,0.009081228037626414
48.68571428571428,0.00913622888107921
48.8,0.009397769806590267
48.91428571428571,0.00985699402656166
49.028571428571425,0.01066486770017979
49.14285714285714,0.012289803727630071
49.25714285714285,0.015649135644980227
49.37142857142857,0.022074205749917867
49.48571428571429,0.03291735239419947
49.6,0.048718090602792474
49.714285714285715,0.06820460521910589
49.82857142857143,0.0878304658462602
49.94285714285714,0.1025584342592076
50.05714285714286,0.10788504607893715
50.17142857142857,0.10205030028723455
50.285714285714285,0.08696980057350637
50.4,0.06722111651175669
50.51428571428571,0.04780555315149083
50.628571428571426,0.03215949028940804
50.74285714285714,0.02143908210596013
50.857142857142854,0.015041193668188065
50.97142857142857,0.011622627407277758
51.08571428571428,0.009914975534575099
51.199999999999996,0.009072644466448924
51.31428571428571,0.00866033039171814
51.42857142857142,0.008497309510998674
51.542857142857144,0.008513588550610966
51.65714285714286,0.008674031017131332
51.77142857142857,0.008959188720879394
51.885714285714286,0.009365502598244438
52.0,0.009894196103504012
52.114285714285714,0.010523606587422359
52.22857142857143,0.01118425677767461
52.34285714285714,0.01176196987198645
52.457142857142856,0.012137497486149763
52.57142857142857,0.012243639820156256
52.68571428571428,0.012103569648858802
52.8,0.011822360951559144
52.91428571428571,0.011534092199194868
53.028571428571425,0.011336889029282187
53.14285714285714,0.011254659590702543
53.25714285714285,0.011243877761823826
53.37142857142857,0.011234526540530103
53.48571428571429,0.011176890471717514
53.6,0.011067779745281899
53.714285714285715,0.010945424104208618
53.82857142857143,0.010861262680964871
53.94285714285714,0.01084918122782914
54.05714285714286,0.010911992876794202
54.17142857142857,0.011032175331415501
54.285714285714285,0.0111976954636595
54.4,0.0114238871129568
54.51428571428571,0.0117534860025083
54.628571428571426,0.012228711027759619
54.74285714285714,0.012847567198847594
54.857142857142854,0.013531849640377016
54.97142857142857,0.01413405815309696
55.08571428571428,0.014489492294011076
