Frequency,PSD
6.0,0.4708680606536737
6.08,0.4711747318093907
6.16,0.4717881333182653
6.24,0.4727083819059309
6.32,0.47393564823150724
6.4,0.4754701508680698
6.48,0.47731214714143955
6.5600000000000005,0.47946191993010007
6.640000000000001,0.48191975939601395
6.72,0.4846859385385909
6.8,0.48776068144811513
6.88,0.4911441231842104
6.96,0.4948362603204811
7.04,0.4988368913767628
7.12,0.503145546601325
7.2,0.5077614068603548
7.28,0.5126832117323432
7.36,0.5179091572799703
7.44,0.5234367843695585
7.5200000000000005,0.5292628588148676
7.6000000000000005,0.535383245024016
7.68,0.541792775211534
7.76,0.5484851165881651
7.84,0.5554526392459903
7.92,0.562686287703854
8.0,0.5701754592576035
8.08,0.5779078923828798
8.16,0.5858695684588134
8.24,0.5940446300150959
8.32,0.6024153185510053
8.4,0.6109619347342334
8.48,0.6196628234632996
8.56,0.6284943858760771
8.64,0.6374311199166962
8.72,0.6464456905442759
8.8,0.655509030091621
8.88,0.6645904686738651
8.96,0.6736578939206945
9.040000000000001,0.6826779386767128
9.120000000000001,0.6916161946983947
9.200000000000001,0.7004374497885932
9.28,0.7091059452657695
9.36,0.7175856501792459
9.44,0.7258405482665977
9.52,0.733834933316114
9.6,0.7415337083551238
9.68,0.748902683940949
9.76,0.7559088707897054
9.84,0.7625207620409984
9.92,0.7687086006229225
10.0,0.77444462744811
10.08,0.779703306531781
10.16,0.784461523568162
10.24,0.7886987550214704
10.32,0.7923972053690652
10.4,0.7955419107629822
10.48,0.7981208080363102
10.56,0.8001247686564064
10.64,0.8015475979011782
10.72,0.8023860001911507
10.8,0.8026395121330463
10.88,0.802310405405452
10.96,0.8014035621307039
11.040000000000001,0.7999263258181124
11.120000000000001,0.7978883313229781
11.200000000000001,0.795301317536774
11.28,0.7921789267022811
11.36,0.7885364943316799
11.44,0.7843908336967473
11.52,0.7797600187617469
11.6,0.7746631692471979
11.68,0.7691202412542393
11.76,0.7631518265544328
11.84,0.756778963269515
11.92,0.7500229602419716
12.0,0.7429052369430149
12.08,0.7354471802926559
12.16,0.7276700192899235
12.24,0.7195947178823456
12.32,0.7112418860541698
12.4,0.702631708693021
12.48,0.6937838914140091
12.56,0.684717622186411
12.64,0.6754515473270795
12.72,0.6660037602010218
12.8,0.6563918008057862
12.88,0.6466326643132971
12.96,0.6367428165998303
13.040000000000001,0.626738214809577
13.120000000000001,0.6166343310660206
13.200000000000001,0.6064461775630672
13.280000000000001,0.5961883314285267
13.36,0.5858749579491228
13.44,0.5755198309711463
13.52,0.5651363495360829
13.6,0.5547375500677744
13.68,0.5443361136886353
13.76,0.5339443684990713
13.84,0.5235742868989114
13.92,0.51323747825527
14.0,0.5029451774216191
14.08,0.49270822978256545
14.16,0.4825370736337017
14.24,0.47244172080282143
14.32,0.4624317364759394
14.4,0.4525162192084065
14.48,0.44270378207872657
14.56,0.4330025358825374
14.64,0.4234200751698524
14.72,0.4139634678044762
14.8,0.4046392485758402
14.88,0.39545341722650207
14.96,0.3864114410799601
15.040000000000001,0.37751826227035645
15.120000000000001,0.36877830939529277
15.200000000000001,0.360195513242465
15.280000000000001,0.3517733260868078
15.36,0.343514743923371
15.44,0.33542233089739776
15.52,0.3274982451210853
15.6,0.3197442650291144
15.68,0.3121618154236795
15.76,0.3047519923943861
15.84,0.29751558636756337
15.92,0.2904531026403344
16.0,0.2835647788829677
16.080000000000002,0.2768505992432201
16.16,0.27031030485221713
16.240000000000002,0.263943400705876
16.32,0.2577491590715035
16.4,0.25172661973844246
16.48,0.24587458758722835
16.56,0.2401916280868135
16.64,0.23467606143814632
16.72,0.22932595615987883
16.8,0.22413912295476082
16.88,0.219113109701273
16.96,0.21424519838387873
17.04,0.20953240470804702
17.12,0.20497148104566795
17.2,0.20055892322683647
17.28,0.19629098154062694
17.36,0.1921636761369366
17.44,0.1881728168409287
17.52,0.18431402720868484
17.6,0.18058277247512675
17.68,0.17697439088052255
17.76,0.17348412771682128
17.84,0.17010717131566516
17.92,0.16683869011101332
18.0,0.16367386985439686
18.080000000000002,0.16060795004188808
18.16,0.15763625862937214
18.240000000000002,0.1547542441655633
18.32,0.1519575045578042
18.400000000000002,0.14924181180017237
18.48,0.14660313213167375
18.56,0.14403764124846352
18.64,0.1415417343614975
18.72,0.13911203106295636
18.8,0.13674537513432353
18.88,0.13443882958957054
18.96,0.1321896673925099
19.04,0.1299953584128081
19.12,0.12785355328622677
19.2,0.12576206491829822
19.28,0.12371884841503011
19.36,0.1217219802387725
19.44,0.11976963737270394
19.52,0.11786007723529818
19.6,0.11599161901935776
19.68,0.11416262704240576
19.76,0.11237149659065741
19.84,0.11061664262214524
19.92,0.1088964915707914
20.0,0.1072094763671979
20.080000000000002,0.1055540346684124
20.16,0.1039286101722759
20.240000000000002,0.10233165678598113
20.32,0.10076164532640414
20.400000000000002,0.09921707235402727
20.48,0.09769647068463157
20.56,0.0961984210842696
20.64,0.09472156463356976
20.72,0.0932646152466095
20.8,0.09182637184633906
20.88,0.0904057297311055
20.96,0.08900169071317351
21.04,0.08761337166780206
21.12,0.08624001119783403
21.2,0.08488097419113981
21.28,0.08353575412394114
21.36,0.08220397303939177
21.44,0.08088537920539367
21.52,0.0795798425262266
21.6,0.07828734784730235
21.68,0.07700798634953455
21.76,0.07574194527824248
21.84,0.07448949629017958
21.92,0.07325098273065661
22.0,0.07202680617050145
22.080000000000002,0.07081741253985438
22.16,0.06962327819283594
22.240000000000002,0.06844489622455825
22.32,0.06728276334059996
22.400000000000002,0.06613736754995059
22.48,0.06500917691674504
22.56,0.06389862956516326
22.64,0.06280612508709581
22.72,0.061732017455028834
22.8,0.06067660949459561
22.88,0.05964014892384756
22.96,0.05862282592095799
23.04,0.05762477214012349
23.12,0.05664606105808749
23.2,0.05568670950203801
23.28,0.0547466801844906
23.36,0.05382588505280784
23.44,0.05292418925061031
23.52,0.052041415485686644
23.6,0.051177348603937765
23.68,0.05033174018105159
23.76,0.04950431296232029
23.84,0.04869476500542298
23.92,0.04790277341000047
24.0,0.04712799755019741
24.080000000000002,0.04637008176063265
24.16,0.04562865746107203
24.240000000000002,0.04490334473888583
24.32,0.044193753439807054
24.400000000000002,0.04349948384519871
24.48,0.04282012703684481
24.560000000000002,0.04215526506723819
24.64,0.041504471063724985
24.72,0.04086730939828843
24.8,0.04024333605105893
24.88,0.0396320992850525
24.96,0.03903314073263493
25.04,0.03844599697159474
25.12,0.037870201641520884
25.2,0.037305288120673165
25.28,0.03675079275111541
25.36,0.036206258567064144
25.44,0.035671239449714266
25.52,0.035145304602738986
25.6,0.034628043217601795
25.68,0.03411906917798582
25.76,0.03361802563902314
25.84,0.033124589310332145
25.92,0.03263847427252882
26.0,0.0321594351650051
26.080000000000002,0.03168726959809521
26.16,0.031221819664754423
26.240000000000002,0.030762972454691256
26.32,0.030310659506448775
26.400000000000002,0.029864855168884992
26.48,0.029425573881437097
26.560000000000002,0.028992866420891286
26.64,0.02856681519957955
26.72,0.028147528734479985
26.8,0.02773513543717507
26.88,0.027329776899846198
26.96,0.026931600871404726
27.04,0.02654075412977261
27.12,0.026157375460768777
27.2,0.025781588950896772
27.28,0.025413497790741327
27.36,0.025053178768130013
27.44,0.024700677606444087
27.52,0.02435600527446586
27.6,0.024019135361073984
27.68,0.023690002572286935
27.76,0.023368502370984423
27.84,0.023054491742527154
27.92,0.02274779103384058
28.0,0.02244818678060006
28.080000000000002,0.022155435408115688
28.16,0.02186926766731072
28.240000000000002,0.021589393648565304
28.32,0.02131550820365183
28.400000000000002,0.021047296599744553
28.48,0.020784440229559845
28.560000000000002,0.02052662220775645
28.64,0.020273532695368437
28.72,0.02002487381050889
28.8,0.019780364004072203
28.88,0.019539741802671613
28.96,0.019302768846566162
29.04,0.01906923217678398
29.12,0.01883894575199294
29.2,0.018611751200940895
29.28,0.018387517839594643
29.36,0.018166142002734503
29.44,0.01794754575709983
29.52,0.017731675076840602
29.6,0.01751849757179309
29.68,0.01730799986487945
29.76,0.01710018471690579
29.84,0.016895067995422723
29.92,0.01669267557956071
30.0,0.016493040285333292
30.080000000000002,0.0162961988864092
30.16,0.01610218929438488
30.240000000000002,0.015911047950769003
30.32,0.015722807470811524
30.400000000000002,0.015537494567504587
30.48,0.015355128273039824
30.560000000000002,0.0151757184650841
30.64,0.014999264696719476
30.72,0.014825755321979613
30.8,0.014655166903613228
30.88,0.014487463886062764
30.96,0.014322598514476953
31.04,0.014160510979729334
31.12,0.014001129769640408
31.2,0.013844372207612369
31.28,0.013690145161393073
31.36,0.013538345906420543
31.44,0.013388863129860058
31.52,0.013241578062844329
31.6,0.013096365729355068
31.68,0.012953096300537864
31.76,0.012811636542950455
31.84,0.012671851348316613
31.92,0.012533605330837399
32.0,0.012396764476129425
32.08,0.012261197823535111
32.160000000000004,0.012126779161094078
32.24,0.011993388710037025
32.32,0.011860914773499808
32.4,0.011729255322412313
32.480000000000004,0.011598319490382553
32.56,0.011468028949000252
32.64,0.011338319135434819
32.72,0.01120914030553146
32.8,0.011080458387871894
32.88,0.010952255617354422
32.96,0.010824530930774783
33.04,0.010697300111432616
33.12,0.010570595674892339
33.2,0.010444466493447407
33.28,0.010318977162432325
33.36,0.01019420711706873
33.44,0.010070249513874882
33.52,0.009947209895588675
33.6,0.009825204662944672
33.68,0.009704359380349933
33.76,0.009584806945449099
33.84,0.009466685654665763
33.92,0.009350137198076123
34.0,0.009235304617369992
34.08,0.009122330260258354
34.160000000000004,0.009011353763549716
34.24,0.00890251009532142
34.32,0.008795927684281077
34.4,0.008691726661631554
34.480000000000004,0.008590017237673178
34.56,0.00849089823208794
34.64,0.008394455773471143
34.72,0.008300762180320536
34.800000000000004,0.008209875032409138
34.88,0.008121836438371857
34.96,0.008036672502432684
35.04,0.007954392990560836
35.12,0.00787499119395928
35.2,0.007798443985687648
35.28,0.007724712064373818
35.36,0.0076537403773706365
35.44,0.007585458714343007
35.52,0.007519782461086911
35.6,0.007456613502374995
35.68,0.007395841261744746
35.76,0.007337343865392458
35.84,0.007280989416662675
35.92,0.007226637367032354
36.0,0.007174139968955431
36.08,0.007123343795447501
36.160000000000004,0.0070740913108561475
36.24,0.007026222476870802
36.32,0.006979576377477707
36.4,0.006933992846268655
36.480000000000004,0.006889314079273732
36.56,0.006845386216314135
36.64,0.006802060873765944
36.72,0.006759196611624126
36.800000000000004,0.006716660317837263
36.88,0.006674328493116088
36.96,0.006632088419765189
37.04,0.0065898391986265945
37.12,0.00654749263894559
37.2,0.006504973986918585
37.28,0.006462222479885252
37.36,0.0064191917146025216
37.44,0.006375849819832863
37.52,0.006332179425576251
37.6,0.006288177423725562
37.68,0.006243854517696726
37.76,0.006199234561685871
37.84,0.006154353693598612
37.92,0.006109259269345758
38.0,0.0060640086100319165
38.08,0.006018667577521496
38.160000000000004,0.005973308997837311
38.24,0.005928010955735339
38.32,0.0058828549874833
38.4,0.005837924202226829
38.480000000000004,0.005793301365226752
38.56,0.005749066978565057
38.64,0.00570529739654406
38.72,0.005662063013821722
38.800000000000004,0.005619426564262939
38.88,0.005577441567489211
38.96,0.005536150958132681
39.04,0.005495585929854523
39.12,0.005455765022306671
39.2,0.005416693474465807
39.28,0.005378362862242258
39.36,0.00534075103210967
39.44,0.005303822335848234
39.52,0.005267528164552627
39.6,0.005231807772977513
39.68,0.005196589378329893
39.76,0.0051617915109204715
39.84,0.005127324587899671
39.92,0.005093092675772662
40.0,0.005058995402714013
40.08,0.0050249299779862675
40.160000000000004,0.004990793273159282
40.24,0.00495648391836751
40.32,0.004921904366595384
40.4,0.004886962879931192
40.480000000000004,0.004851575393861928
40.56,0.004815667218895309
40.64,0.004779174543034928
40.72,0.004742045703705821
40.800000000000004,0.004704242203555304
40.88,0.0046657394508904226
40.96,0.004626527212235223
41.04,0.0045866097713726005
41.12,0.004546005796120466
41.2,0.004504747920760555
41.28,0.004462882058374339
41.36,0.004420466463132436
41.44,0.004377570567754593
41.52,0.00433427362575772
41.6,0.004290663191678715
41.68,0.004246833475130968
41.76,0.0042028836063007355
41.84,0.004158915851303524
41.92,0.004115033815734908
42.0,0.004071340673775597
42.08,0.004027937458460475
42.160000000000004,0.00398492144621016
42.24,0.003942384665603618
42.32,0.003900412556702578
42.4,0.0038590828031504973
42.480000000000004,0.0038184643548626503
42.56,0.0037786166545246587
42.64,0.0037395890764169853
42.72,0.0037014205813998193
42.800000000000004,0.0036641395873209404
42.88,0.003627764049736362
42.96,0.0035923017437394485
43.04,0.0035577507339530287
43.12,0.003524100016396997
43.2,0.0034913303130696544
43.28,0.0034594149976828817
43.36,0.003428321129114618
43.44,0.0033980105678014464
43.52,0.003368441149468179
43.6,0.003339567890318024
43.68,0.003311344198022436
43.76,0.0032837230635754215
43.84,0.0032566582102507187
43.92,0.0032301051774995433
44.0,0.0032040223196060785
44.08,0.0031783717012243834
44.160000000000004,0.003153119874503077
44.24,0.003128238525304458
44.32,0.003103704978984099
44.4,0.003079502559252415
44.480000000000004,0.0030556207967309505
44.56,0.0030320554868826753
44.64,0.0030088085999759213
44.72,0.0029858880485873936
44.800000000000004,0.0029633073208045965
44.88,0.002941084989703281
44.96,0.0029192441118283414
45.04,0.0028978115292425857
45.12,0.002876817091223621
45.2,0.002856292812849293
45.28,0.0028362719885282554
45.36,0.0028167882789736833
45.44,0.0027978747902241818
45.52,0.002779563163068351
45.6,0.0027618826906572556
45.68,0.0027448594812183504
45.76,0.0027285156816281297
45.84,0.00271286877619549
45.92,0.0026979309733848184
46.0,0.00268370869138633
46.08,0.0026702021514770323
46.160000000000004,0.002657405086013854
46.24,0.00264530456572697
46.32,0.0026338809487351338
46.4,0.0026231079514582416
46.480000000000004,0.002612952839356978
46.56,0.0026033767332449102
46.64,0.0025943350248120757
46.72,0.00258577789302333
46.800000000000004,0.002577650911228333
46.88,0.002569895733189973
46.96,0.0025624508448291415
47.04,0.002555252367326677
47.12,0.002548234896362911
47.2,0.002541332361690324
47.28,0.002534478891011993
47.36,0.0025276096622100022
47.44,0.0025206617284124697
47.52,0.0025135748011350517
47.6,0.0025062919778298665
47.68,0.0024987604015434296
47.76,0.0024909318420407965
47.84,0.0024827631896256162
47.92,0.002474216854939388
48.0,0.002465261070208457
48.08,0.0024558700896508585
48.160000000000004,0.0024460242890155318
48.24,0.0024357101664222378
48.32,0.0024249202487533483
48.4,0.0024136529097640302
48.480000000000004,0.002401912107753059
48.56,0.0023897070520674003
48.64,0.0023770518088147945
48.72,0.0023639648569676215
48.800000000000004,0.002350468606484319
48.88,0.0023365888902014513
48.96,0.002322354441042073
49.04,0.0023077963655789187
49.120000000000005,0.002292947624221251
49.2,0.0022778425272756107
49.28,0.0022625162549576826
49.36,0.00224700440809961
49.44,0.002231342594909095
49.52,0.00221556605770298
49.6,0.0021997093421513916
49.68,0.002183806010223159
49.76,0.0021678883968231748
49.84,0.002151987409025769
49.92,0.002136132365910849
50.0,0.0021203508762853915
50.08,0.002104668751044137
50.160000000000004,0.00208910994658763
50.24,0.0020736965355507703
50.32,0.002058448701106816
50.4,0.0020433847512578603
50.480000000000004,0.0020285211497826465
50.56,0.002013872560869944
50.64,0.001999451904871625
50.72,0.001985270423043948
50.800000000000004,0.001971337749582854
50.88,0.001957661989670824
50.96,0.00194424980261617
51.04,0.0019311064894615704
51.120000000000005,0.00191823608467534
51.2,0.001905641451676425
51.28,0.0018933243820109039
51.36,0.0018812856979853049
51.44,0.0018695253584816857
51.52,0.0018580425675303498
51.6,0.001846835885040126
51.68,0.0018359033388743676
51.76,0.0018252425372356548
51.84,0.001814850780115151
51.92,0.0018047251683772029
52.0,0.0017948627088963751
52.08,0.001785260414079162
52.160000000000004,0.0017759153940615988
52.24,0.0017668249399183447
52.32,0.0017579865963225725
52.4,0.0017493982222808926
52.480000000000004,0.001741058038804439
52.56,0.0017329646626950378
52.64,0.0017251171259670666
52.72,0.0017175148808222952
52.800000000000004,0.0017101577905028961
52.88,0.0017030461067577343
52.96,0.0016961804350664389
53.04,0.0016895616891340415
53.120000000000005,0.0016831910364978374
53.2,0.0016770698373647737
53.28,0.001671199578995139
53.36,0.00166558180807293
53.44,0.0016602180635428686
53.52,0.0016551098123421
53.6,0.0016502583903198415
53.68,0.0016456649504227377
53.76,0.0016413304199223815
53.84,0.0016372554681109465
53.92,0.001633440485473614
54.0,0.0016298855749073888
54.08,0.0016265905550838554
54.160000000000004,0.0016235549755907975
54.24,0.0016207781430348429
54.32,0.0016182591568687592
54.4,0.001615996953342289
54.480000000000004,0.0016139903556681707
54.56,0.0016122381282648608
54.64,0.0016107390328011072
54.72,0.0016094918837016026
54.800000000000004,0.0016084956008198537
54.88,0.0016077492571054581
54.96,0.0016072521193128502
55.04,0.001607003680081931
