Frequency,PSD
6.057142857142857,0.12300704250553715
6.171428571428571,0.12376821238243835
6.285714285714286,0.1251778298587611
6.3999999999999995,0.1270352280803475
6.514285714285714,0.12909493740069142
6.628571428571428,0.13111740477901065
6.742857142857143,0.1329154885266112
6.857142857142857,0.13438740069773
6.9714285714285715,0.13553166403496994
7.085714285714285,0.1364451205109205
7.2,0.13730917378172494
7.314285714285714,0.13837103755137117
7.428571428571428,0.13992567192197428
7.542857142857143,0.14230126798058765
7.657142857142857,0.14584811646669918
7.771428571428571,0.1509288569710661
7.885714285714285,0.15790807210140714
8.0,0.16714058883337407
8.114285714285714,0.17895955663003832
8.228571428571428,0.19366614127437726
8.342857142857143,0.21152180087171818
8.457142857142857,0.23274184463176087
8.571428571428571,0.25748647621157894
8.685714285714285,0.2858443870235764
8.799999999999999,0.31780549004980496
8.914285714285715,0.3532238574529651
9.028571428571428,0.39177819803108577
9.142857142857142,0.4329428121212706
9.257142857142856,0.4759838534436351
9.371428571428572,0.5199915937038656
9.485714285714286,0.5639490304548516
9.6,0.6068233491455659
9.714285714285714,0.647654731271675
9.828571428571427,0.6856127647522964
9.942857142857143,0.7199981655270421
10.057142857142857,0.7501860616885548
10.17142857142857,0.7755308824492267
10.285714285714285,0.7952725877750672
10.4,0.8084905087160641
10.514285714285714,0.8141399030134906
10.628571428571428,0.8111800435363482
10.742857142857142,0.7987704194176075
10.857142857142858,0.776485563220038
10.971428571428572,0.7444890529709332
11.085714285714285,0.7036169207363192
11.2,0.6553459310406149
11.314285714285713,0.6016533855194028
11.428571428571429,0.5448015183644255
11.542857142857143,0.4870935717465523
11.657142857142857,0.4306481823017959
11.77142857142857,0.37722685338612405
11.885714285714286,0.3281319916692004
12.0,0.28417623915879303
12.114285714285714,0.2457116182479846
12.228571428571428,0.21270068656260216
12.342857142857142,0.18481076042188177
12.457142857142857,0.1615145946071112
12.571428571428571,0.14218491149941337
12.685714285714285,0.12617449423860944
12.799999999999999,0.11287738342146425
12.914285714285715,0.10176969863503457
13.028571428571428,0.09243073737425464
13.142857142857142,0.08454648646947541
13.257142857142856,0.07789878129242872
13.371428571428572,0.07234424339873641
13.485714285714286,0.067787802083244
13.6,0.0641558588225175
13.714285714285714,0.061373733625823754
13.828571428571427,0.059350824540780264
13.942857142857143,0.05797507014943709
14.057142857142857,0.05711624058873817
14.17142857142857,0.056635809930396824
14.285714285714285,0.05640009326771851
14.4,0.056293128063160454
14.514285714285714,0.056226338048608784
14.628571428571428,0.056143070608785234
14.742857142857142,0.05601735102709681
14.857142857142856,0.05584742493951678
14.971428571428572,0.05564572032414685
15.085714285714285,0.05542763883718016
15.2,0.0552019478591516
15.314285714285713,0.0549653344059292
15.428571428571429,0.05470279801765053
15.542857142857143,0.05439406006736389
15.657142857142857,0.05402434682110516
15.77142857142857,0.05359627738821905
15.885714285714284,0.05313875070118644
16.0,0.052709128804577565
16.114285714285714,0.052386739249992834
16.228571428571428,0.052258365646298446
16.34285714285714,0.05239914815123085
16.457142857142856,0.05285420722586102
16.57142857142857,0.05362657370948788
16.685714285714287,0.05467542079193537
16.8,0.05592557487543305
16.914285714285715,0.05728580360169029
17.02857142857143,0.0586706187950265
17.142857142857142,0.06001924354129267
17.257142857142856,0.06130634948524837
17.37142857142857,0.06254182889039757
17.485714285714284,0.06376030131801948
17.599999999999998,0.06500411121106278
17.714285714285715,0.0663052817302584
17.82857142857143,0.0676717925682538
17.942857142857143,0.06908180951574446
18.057142857142857,0.07048678924956127
18.17142857142857,0.0718216390324317
18.285714285714285,0.07301818484319463
18.4,0.0740176218939387
18.514285714285712,0.07477845259306143
18.628571428571426,0.07527827336082184
18.742857142857144,0.07550997408956982
18.857142857142858,0.0754747313669349
18.97142857142857,0.07517506723700994
19.085714285714285,0.07461100922659505
19.2,0.0737811813365977
19.314285714285713,0.0726888908888239
19.428571428571427,0.0713514683848034
19.54285714285714,0.06980975949211608
19.657142857142855,0.0681341464169987
19.771428571428572,0.06642400796601236
19.885714285714286,0.0647990911335128
20.0,0.06338353505573212
20.114285714285714,0.062285636727374874
20.228571428571428,0.06157810045406341
20.34285714285714,0.06128381538067511
20.457142857142856,0.06137092569333841
20.57142857142857,0.061758451266715204
20.685714285714287,0.06233083483986618
20.8,0.06295754927510872
20.914285714285715,0.06351303911008975
21.02857142857143,0.0638929548511427
21.142857142857142,0.06402440665312101
21.257142857142856,0.06386998930937324
21.37142857142857,0.0634268201071973
21.485714285714284,0.06272236715632305
21.599999999999998,0.06180850579568916
21.714285714285715,0.06075447053220106
21.82857142857143,0.05963871105078802
21.942857142857143,0.05853948796171466
22.057142857142857,0.0575244319464092
22.17142857142857,0.056640035168489616
22.285714285714285,0.05590278745082996
22.4,0.055294045789506543
22.514285714285712,0.05476048187519253
22.628571428571426,0.05422102856517726
22.742857142857144,0.0535798113202906
22.857142857142858,0.052742982124637475
22.97142857142857,0.05163616347751465
23.085714285714285,0.050218799758427295
23.2,0.04849230906327842
23.314285714285713,0.04650039014605764
23.428571428571427,0.04432171202667709
23.54285714285714,0.042056909427690845
23.657142857142855,0.039812844967826375
23.771428571428572,0.03768728713231087
23.885714285714286,0.03575661693094123
24.0,0.03406823634911998
24.114285714285714,0.03263833778023355
24.228571428571428,0.031454807772221025
24.34285714285714,0.030484334125625668
24.457142857142856,0.02968224408198817
24.57142857142857,0.029003229356825186
24.685714285714283,0.028410982343017328
24.8,0.027884971984479482
24.914285714285715,0.027423162370900533
25.02857142857143,0.02704033560240464
25.142857142857142,0.026762622559433413
25.257142857142856,0.026619628360210396
25.37142857142857,0.026635971339037202
25.485714285714284,0.026824056481956432
25.599999999999998,0.027179518708123164
25.71428571428571,0.027680123742500805
25.82857142857143,0.02828816055599873
25.942857142857143,0.028955646762872902
26.057142857142857,0.029631120299504148
26.17142857142857,0.03026650501963663
26.285714285714285,0.030822581482831034
26.4,0.031271984015403806
26.514285714285712,0.03159932135090944
26.628571428571426,0.03179883054277072
26.742857142857144,0.031870700153813894
26.857142857142858,0.031817602230400394
26.97142857142857,0.0316428841082148
27.085714285714285,0.03135126506680558
27.2,0.030951912692803805
27.314285714285713,0.030462744397302406
27.428571428571427,0.029914076670203023
27.54285714285714,0.02934962777633491
27.657142857142855,0.02882348253085465
27.771428571428572,0.028392815827127965
27.885714285714286,0.028107586664867776
28.0,0.027999587743246474
28.114285714285714,0.028073750866623382
28.228571428571428,0.02830425450644315
28.34285714285714,0.028636834265190446
28.457142857142856,0.02899710434994181
28.57142857142857,0.02930315157862282
28.685714285714283,0.029479631831248364
28.8,0.029470365111140595
28.914285714285715,0.02924699622171472
29.02857142857143,0.028812409746875337
29.142857142857142,0.02819886033915996
29.257142857142856,0.027461818942017994
29.37142857142857,0.026671116814040288
29.485714285714284,0.02590107993916815
29.599999999999998,0.02522113875393231
29.71428571428571,0.024688068951167434
29.82857142857143,0.024340692232554355
29.942857142857143,0.024197544365839048
30.057142857142857,0.024257629496963064
30.17142857142857,0.024503878576261337
30.285714285714285,0.024908381786420943
30.4,0.02543805279181271
30.514285714285712,0.026059319294583154
30.628571428571426,0.02674083065340964
30.74285714285714,0.027453940902512373
30.857142857142858,0.028171580301622687
30.97142857142857,0.028866706803593063
31.085714285714285,0.029511564268005393
31.2,0.030078444453302128
31.314285714285713,0.03054180785846598
31.428571428571427,0.030880881002767542
31.54285714285714,0.03108158761826895
31.657142857142855,0.031137020764552152
31.77142857142857,0.031046436163788126
31.885714285714286,0.030813531020976795
32.0,0.030445143217862035
32.114285714285714,0.02995125363632399
32.22857142857143,0.029346415920387583
32.34285714285714,0.028651852879890034
32.457142857142856,0.027896891628137226
32.57142857142857,0.027118447368124046
32.68571428571428,0.02635790723112883
32.8,0.025655739966909723
32.91428571428571,0.025045065293970353
33.028571428571425,0.024545909823541972
33.14285714285714,0.02416178795836384
33.25714285714285,0.023879628902222016
33.371428571428574,0.02367314903864921
33.48571428571429,0.023508842504389234
33.6,0.02335310719509596
33.714285714285715,0.02317881148150543
33.82857142857143,0.022969867311433845
33.94285714285714,0.02272299433745844
34.05714285714286,0.022446625499349705
34.17142857142857,0.022157583068641684
34.285714285714285,0.021876569393456256
34.4,0.021623602447769598
34.51428571428571,0.02141433009324454
34.628571428571426,0.021257797228000915
34.74285714285714,0.021155845531091698
34.857142857142854,0.021103988054260614
34.97142857142857,0.02109336048871827
35.08571428571428,0.021113211030237725
35.199999999999996,0.02115334456513198
35.31428571428572,0.02120598417650282
35.42857142857143,0.021266657772496755
35.542857142857144,0.02133395130843777
35.65714285714286,0.021408254084962167
35.77142857142857,0.021489885549526133
35.885714285714286,0.0215771547146964
36.0,0.021664904150889775
36.114285714285714,0.02174392769836555
36.22857142857143,0.021801385896270835
36.34285714285714,0.02182207641199843
36.457142857142856,0.021790241187049118
36.57142857142857,0.021691548019700833
36.68571428571428,0.02151494549188542
36.8,0.02125418771570527
36.91428571428571,0.020908895895371708
37.028571428571425,0.020485049164715614
37.14285714285714,0.019994811017746174
37.25714285714285,0.019455653342285956
37.371428571428574,0.018888864055227057
37.48571428571429,0.018317686413953774
37.6,0.017765460575593348
37.714285714285715,0.017254139996915975
37.82857142857143,0.016803405217885665
37.94285714285714,0.01643034155618879
38.05714285714286,0.016149394928659567
38.17142857142857,0.015972193812711755
38.285714285714285,0.015906898733955618
38.4,0.015956997108609195
38.51428571428571,0.01611979523886936
38.628571428571426,0.016385120582429705
38.74285714285714,0.016734810137493852
38.857142857142854,0.017143384677656397
38.97142857142857,0.01757996240553078
39.08571428571428,0.018011097231763532
39.199999999999996,0.018403991461918456
39.31428571428571,0.018729514298677714
39.42857142857143,0.01896462761753289
39.542857142857144,0.019094058468570204
39.65714285714286,0.019111225465736584
39.77142857142857,0.019018452158253606
39.885714285714286,0.018826422520353808
40.0,0.01855277124918818
40.114285714285714,0.01821977241517832
40.22857142857143,0.017851323674218218
40.34285714285714,0.017469727345306853
40.457142857142856,0.017092974440865938
40.57142857142857,0.016733195124266895
40.68571428571428,0.016396617035348292
40.8,0.01608488681472334
40.91428571428571,0.01579716924783406
41.028571428571425,0.015532236893350608
41.14285714285714,0.015289877945429053
41.25714285714285,0.015071305096868555
41.371428571428574,0.014878661979734155
41.48571428571429,0.01471401193247286
41.6,0.014578263222246635
41.714285714285715,0.0144703672146022
41.82857142857143,0.014386937637884959
41.94285714285714,0.014322298395935233
42.05714285714286,0.01426892451988942
42.17142857142857,0.014218261122038677
42.285714285714285,0.014161909619005684
42.4,0.01409310098615029
42.51428571428571,0.014008240414414045
42.628571428571426,0.013908177776140875
42.74285714285714,0.01379882274990776
42.857142857142854,0.013690831845866322
42.97142857142857,0.013598324113629106
43.08571428571428,0.013536847382039668
43.199999999999996,0.013521012980924268
43.31428571428571,0.013562272591293882
43.42857142857143,0.01366721963087935
43.542857142857144,0.013836615039013404
43.65714285714286,0.014065148613042035
43.77142857142857,0.014341823296048838
43.885714285714286,0.014650816339352501
44.0,0.014972702344104926
44.114285714285714,0.015285964014845624
44.22857142857143,0.015568718839438132
44.34285714285714,0.015800541406401428
44.457142857142856,0.015964191233972726
44.57142857142857,0.016047016623704127
44.68571428571428,0.016041836872257773
44.8,0.01594721132840472
44.91428571428571,0.015767146294177234
45.028571428571425,0.015510411222232158
45.14285714285714,0.015189686411859353
45.25714285714285,0.014820731206816023
45.37142857142857,0.014421666013804405
45.48571428571429,0.014012344960775918
45.6,0.01361370016998685
45.714285714285715,0.013246892021744424
45.82857142857143,0.01293211650591787
45.94285714285714,0.01268700338099552
46.05714285714286,0.012524677841924625
46.17142857142857,0.012451726479234414
46.285714285714285,0.012466457706469286
46.4,0.012557918942368762
46.51428571428571,0.012706081814081806
46.628571428571426,0.012883425248295778
46.74285714285714,0.013057876205226733
46.857142857142854,0.013196784140073884
46.97142857142857,0.013271382725191393
47.08571428571428,0.013261074067548452
47.199999999999996,0.013156860269012296
47.31428571428571,0.012963327139205396
47.42857142857143,0.012698743472298074
47.542857142857144,0.012393082083271837
47.65714285714286,0.012084102521186128
47.77142857142857,0.01181203589670387
47.885714285714286,0.011613802990586727
48.0,0.011517959251557519
48.114285714285714,0.011541576321427934
48.22857142857143,0.011689973184070663
48.34285714285714,0.011959619293995659
48.457142857142856,0.012343749033167348
48.57142857142857,0.01283941019429838
48.68571428571428,0.013454002283517905
48.8,0.014209029665136137
48.91428571428571,0.015138973136765122
49.028571428571425,0.016283998920316314
49.14285714285714,0.017676690385978796
49.25714285714285,0.019324913674467196
49.37142857142857,0.021194853421286124
49.48571428571429,0.0231994926627154
49.6,0.025197650430183214
49.714285714285715,0.02700672342029828
49.82857142857143,0.028428718013116704
49.94285714285714,0.029284955105326606
50.05714285714286,0.02945143585460787
50.17142857142857,0.028885676156134937
50.285714285714285,0.027637561215195172
50.4,0.02584104405888663
50.51428571428571,0.023688890297555585
50.628571428571426,0.021397272254298525
50.74285714285714,0.019169287444043726
50.857142857142854,0.017165826770703985
50.97142857142857,0.015489176632647868
51.08571428571428,0.014180620843093884
51.199999999999996,0.013229589839219139
51.31428571428571,0.012589644684436702
51.42857142857142,0.012196128266389845
51.542857142857144,0.01198135067308714
51.65714285714286,0.011885005357726634
51.77142857142857,0.0118593968672102
51.885714285714286,0.011870457236055551
52.0,0.011896193900338666
52.114285714285714,0.011924183798258842
52.22857142857143,0.011949231419158128
52.34285714285714,0.011971642825923086
52.457142857142856,0.011996003086972027
52.57142857142857,0.012030047545188315
52.68571428571428,0.01208322205413616
52.8,0.012164754686724944
52.91428571428571,0.012281373446703436
53.028571428571425,0.012435067273478602
53.14285714285714,0.012621415758800011
53.25714285714285,0.012828981170827591
53.37142857142857,0.013040083709090168
53.48571428571429,0.013233007833754638
53.6,0.013385363596949383
53.714285714285715,0.013478013310985052
53.82857142857143,0.013498748165332293
53.94285714285714,0.013444845498254828
54.05714285714286,0.013323814660422175
54.17142857142857,0.013152043197111232
54.285714285714285,0.012951594936196043
54.4,0.01274592742260304
54.51428571428571,0.012555613432387602
54.628571428571426,0.012395151556832032
54.74285714285714,0.012271623070020476
54.857142857142854,0.01218539964527808
54.97142857142857,0.012132506214333726
55.08571428571428,0.012107780820622204
