Frequency,PSD
6.0,0.4963643611973481
6.08,0.4966616012240148
6.16,0.49724315660026597
6.24,0.4980844427870319
6.32,0.49915163259732787
6.4,0.5004050099007818
6.48,0.5018029577282378
6.5600000000000005,0.503306217138469
6.640000000000001,0.5048820220536359
6.72,0.5065077182371338
6.8,0.5081735129821976
6.88,0.5098840744816155
6.96,0.51165880194718
7.04,0.5135307121564784
7.12,0.5155440254059611
7.2,0.5177506718954502
7.28,0.5202060650671881
7.36,0.5229645877844384
7.44,0.526075297847078
7.5200000000000005,0.5295783709601741
7.6000000000000005,0.5335027554092169
7.68,0.5378654118428978
7.76,0.5426723580653524
7.84,0.5479215431588784
7.92,0.5536073541036498
8.0,0.5597263327919606
8.08,0.5662834766527323
8.16,0.573298337619363
8.24,0.5808100456370046
8.32,0.5888803832385686
8.4,0.597594138211216
8.48,0.607056163365288
8.56,0.6173848658283351
8.64,0.6287022113107309
8.72,0.6411207289347791
8.8,0.6547283987883418
8.88,0.6695726522645862
8.96,0.6856449698527114
9.040000000000001,0.702867683614786
9.120000000000001,0.7210845546500366
9.200000000000001,0.7400564877956117
9.28,0.7594633739723051
9.36,0.7789125422010394
9.44,0.797953704013928
9.52,0.8160996426449467
9.6,0.8328513057636998
9.68,0.8477254712709499
9.76,0.8602828298302084
9.84,0.870154207827277
9.92,0.8770627601061283
10.0,0.8808402868936087
10.08,0.8814363416469645
10.16,0.8789194416805091
10.24,0.873470401284101
10.32,0.8653685008077178
10.4,0.8549718109823491
10.48,0.8426934478394267
10.56,0.8289757976883781
10.64,0.8142648053296035
10.72,0.7989862686178326
10.8,0.7835257579524002
10.88,0.7682133271537267
10.96,0.753313659957112
11.040000000000001,0.7390217642520343
11.120000000000001,0.7254638397833134
11.200000000000001,0.7127025491068726
11.28,0.7007456461001802
11.36,0.6895567745874349
11.44,0.6790672388442874
11.52,0.6691876513454142
11.6,0.6598185545295338
11.68,0.650859360351675
11.76,0.6422152205052138
11.84,0.6338017006218784
11.92,0.6255473583574063
12.0,0.6173945004677334
12.08,0.6092985085130211
12.16,0.6012261754485775
12.24,0.593153491702332
12.32,0.5850632701813167
12.4,0.5769429189135774
12.48,0.5687825727271517
12.56,0.5605736957515541
12.64,0.5523081766323791
12.72,0.5439778669855457
12.8,0.5355744658824008
12.88,0.527089630435274
12.96,0.518515192932119
13.040000000000001,0.5098433839654185
13.120000000000001,0.5010669924818751
13.200000000000001,0.49217943085122995
13.280000000000001,0.48317470939791984
13.36,0.47404735490841776
13.44,0.46479232760279404
13.52,0.4554049990511186
13.6,0.4458812495721044
13.68,0.4362177295092583
13.76,0.4264123074059296
13.84,0.4164647031095349
13.92,0.4063772788762203
14.0,0.3961559397612274
14.08,0.3858110782093931
14.16,0.3753584879638089
14.24,0.36482016930067135
14.32,0.35422495046413405
14.4,0.34360885783035866
14.48,0.33301517849242956
14.56,0.32249417256813184
14.64,0.3121024079409504
14.72,0.3019017071258445
14.8,0.29195771455546143
14.88,0.28233811287034255
14.96,0.2731105385392417
15.040000000000001,0.26434026956680867
15.120000000000001,0.25608777974592756
15.200000000000001,0.2484062728682948
15.280000000000001,0.24133932415333292
15.36,0.23491876255050737
15.44,0.2291629246349035
15.52,0.22407539754190364
15.6,0.21964434492103949
15.68,0.21584247763447012
15.76,0.21262769242854893
15.84,0.2099443604508107
15.92,0.20772520704232222
16.0,0.20589368836377175
16.080000000000002,0.20436674217848766
16.16,0.20305777162429794
16.240000000000002,0.20187971300428798
16.32,0.20074804127772763
16.4,0.19958357876906074
16.48,0.19831499161595295
16.56,0.19688088222750388
16.64,0.1952314120592124
16.72,0.1933294151377947
16.8,0.19115098728062518
16.88,0.18868555774588353
16.96,0.18593546861907873
17.04,0.1829151026034898
17.12,0.17964961241221472
17.2,0.17617331520951812
17.28,0.1725278240581379
17.36,0.16875999546131154
17.44,0.1649197779169391
17.52,0.1610580506537152
17.6,0.1572245437890692
17.68,0.15346593017703955
17.76,0.1498241742302236
17.84,0.146335213109893
17.92,0.14302803027843594
18.0,0.1399241603938459
18.080000000000002,0.13703763846451178
18.16,0.13437537641584277
18.240000000000002,0.1319379188667085
18.32,0.12972049974993052
18.400000000000002,0.1277142956283136
18.48,0.12590775340564633
18.56,0.12428786248555712
18.64,0.12284124633193688
18.72,0.12155496662665959
18.8,0.12041696404886566
18.88,0.11941610069288403
18.96,0.11854181631791812
19.04,0.11778345879679977
19.12,0.11712939249284453
19.2,0.11656602114867555
19.28,0.11607687944641759
19.36,0.11564194659434165
19.44,0.11523731524896315
19.52,0.11483531144657144
19.6,0.11440511007723744
19.68,0.11391383184358392
19.76,0.11332804885482141
19.84,0.11261557446258785
19.92,0.11174737524413558
20.0,0.11069942397710912
20.080000000000002,0.10945431434577484
20.16,0.10800248050411036
20.240000000000002,0.10634290436431477
20.32,0.10448324529949674
20.400000000000002,0.10243938423785258
20.48,0.10023442992613137
20.56,0.09789728312253847
20.64,0.095460889753277
20.72,0.09296033371693187
20.8,0.09043092330139015
20.88,0.0879064133731825
20.96,0.08541748150691128
21.04,0.08299054396261063
21.12,0.08064696118396712
21.2,0.0784026463490712
21.28,0.07626805784426359
21.36,0.07424852978038668
21.44,0.07234487521801784
21.52,0.07055418503870695
21.6,0.06887074104098863
21.68,0.06728696396202936
21.76,0.065794324532949
21.84,0.06438415706001253
21.92,0.06304832909537093
22.0,0.06177973631814633
22.080000000000002,0.060572607700039964
22.16,0.059422621401795675
22.240000000000002,0.05832684576932374
22.32,0.057283531520830676
22.400000000000002,0.05629179013328666
22.48,0.05535119912662492
22.56,0.05446137721064895
22.64,0.05362157115892761
22.72,0.05283029211765441
22.8,0.05208503238375764
22.88,0.05138208520155382
22.96,0.05071648062492617
23.04,0.05008204076764308
23.12,0.04947154853651533
23.2,0.048877015796262205
23.28,0.04829003027665368
23.36,0.047702155668614334
23.44,0.04710535639785515
23.52,0.0464924175412441
23.6,0.04585733121891314
23.68,0.0451956234551417
23.76,0.04450459979837525
23.84,0.043783493699239506
23.92,0.043033508446139304
24.0,0.042257750923846926
24.080000000000002,0.041461063058654046
24.16,0.04064976393492066
24.240000000000002,0.039831321582695325
24.32,0.0390139777723379
24.400000000000002,0.038206351379555685
24.48,0.03741704579025092
24.560000000000002,0.03665428345191173
24.64,0.035925586374594164
24.72,0.035237515706317946
24.8,0.03459547718397151
24.88,0.0340035930779873
24.96,0.03346463593572929
25.04,0.03298001555000413
25.12,0.03254980846042636
25.2,0.03217281898512825
25.28,0.03184666206043382
25.36,0.031567860603494
25.44,0.031331953142052345
25.52,0.031133610476245542
25.6,0.0309667626100899
25.68,0.03082473871321275
25.76,0.030700423230787928
25.84,0.030586430436066635
25.92,0.030475297882229416
26.0,0.03035969666424511
26.080000000000002,0.030232653533417697
26.16,0.030087777123268024
26.240000000000002,0.029919478216430567
26.32,0.029723172404934207
26.400000000000002,0.02949545287001025
26.48,0.029234221428641315
26.560000000000002,0.028938767461912217
26.64,0.028609786770945965
26.72,0.028249335648010045
26.8,0.027860719297084467
26.88,0.027448317939996924
26.96,0.027017358216412983
27.04,0.026573641518574997
27.12,0.02612324437287513
27.2,0.025672208576317645
27.28,0.025226240236764855
27.36,0.024790436936646273
27.44,0.02436906082177953
27.52,0.023965372514481206
27.6,0.023581536507188174
27.68,0.023218603395342218
27.76,0.022876568369161035
27.84,0.022554499311288508
27.92,0.022250722198113485
28.0,0.021963046826517583
28.080000000000002,0.021689012667561867
28.16,0.021426133243248772
28.240000000000002,0.021172118020915558
28.32,0.02092505341059094
28.400000000000002,0.02068352881214569
28.48,0.02044669937342378
28.560000000000002,0.02021428361087193
28.64,0.019986500633076963
28.72,0.019763957691011663
28.8,0.01954750350747026
28.88,0.019338065796732508
28.96,0.01913649225829896
29.04,0.01894341304275436
29.12,0.01875913942636519
29.2,0.018583608611897083
29.28,0.018416378797118056
29.36,0.018256672625051904
29.44,0.018103461569576325
29.52,0.017955579354151575
29.6,0.017811849627424065
29.68,0.01767121208797679
29.76,0.017532832083249274
29.84,0.01739618119854951
29.92,0.017261080110231895
30.0,0.017127699491736932
30.080000000000002,0.016996519477769693
30.16,0.016868252585673302
30.240000000000002,0.01674373862997494
30.32,0.016623822742229313
30.400000000000002,0.016509228965857606
30.48,0.01640044201650024
30.560000000000002,0.01629760878070221
30.64,0.01620046915183702
30.72,0.016108323104883047
30.8,0.0160200377452561
30.88,0.015934094686922036
30.96,0.015848674765906373
31.04,0.015761774005101255
31.12,0.015671342123157714
31.2,0.015575432908303212
31.28,0.015472354608963818
31.36,0.015360808234268546
31.44,0.015240002356925655
31.52,0.015109734644135253
31.6,0.01497043280414767
31.68,0.014823150742331544
31.76,0.014669519218791727
31.84,0.014511653891732583
31.92,0.01435202700320255
32.0,0.014193311820770816
32.08,0.014038211043939326
32.160000000000004,0.013889281547137613
32.24,0.01374876798276176
32.32,0.013618456924958113
32.4,0.013499561504220676
32.480000000000004,0.0133926440447622
32.56,0.01329758130275711
32.64,0.01321357377158744
32.72,0.013139197427929317
32.8,0.013072493474692384
32.88,0.013011089286543433
32.96,0.012952342019519822
33.04,0.012893495285551991
33.12,0.012831838932271746
33.2,0.012764862270258826
33.28,0.012690391972331648
33.36,0.012606707221433245
33.44,0.012512626379489262
33.52,0.01240756136250807
33.6,0.012291537919370073
33.68,0.012165182019489853
33.76,0.012029674468681526
33.84,0.011886677614896762
33.92,0.011738239503630014
34.0,0.011586682025595284
34.08,0.011434480396060882
34.160000000000004,0.011284141649335132
34.24,0.011138089669939812
34.32,0.010998563586467502
34.4,0.010867535137246804
34.480000000000004,0.01074664894184952
34.56,0.010637187598280851
34.64,0.010540061343499682
34.72,0.010455819874113075
34.800000000000004,0.010384682049351087
34.88,0.01032657780086649
34.96,0.010281195820493878
35.04,0.010248030583991038
35.12,0.010226423003187938
35.2,0.010215590393672888
35.28,0.010214643327011951
35.36,0.010222589068463279
35.44,0.010238323414205209
35.52,0.010260614572379517
35.6,0.010288084057150915
35.68,0.010319190232247023
35.76,0.010352220086044861
35.84,0.010385294072319461
35.92,0.010416387519840462
36.0,0.010443370372634216
36.08,0.010464065077985045
36.160000000000004,0.010476320504557287
36.24,0.010478098042839869
36.32,0.010467564672202268
36.4,0.01044318688465181
36.480000000000004,0.010403818998535905
36.56,0.010348779595883963
36.64,0.010277910558150277
36.72,0.010191614409877946
36.800000000000004,0.010090867335948904
36.88,0.009977207219403284
36.96,0.009852698233184529
37.04,0.009719875766157937
37.12,0.009581677604059681
37.2,0.00944136913419572
37.28,0.009302471704026335
37.36,0.009168703946181998
37.44,0.009043945711489783
37.52,0.008932233085492283
37.6,0.00883779070974212
37.68,0.00876510425801942
37.76,0.008719031481525367
37.84,0.008704944886441409
37.92,0.008728893110150779
38.0,0.00879776182281623
38.08,0.008919409051357546
38.160000000000004,0.009102744902804853
38.24,0.009357722576175634
38.32,0.009695207184990732
38.4,0.010126692125169414
38.480000000000004,0.010663840210651384
38.56,0.011317838931606016
38.64,0.012098575842928816
38.72,0.013013660499244828
38.800000000000004,0.0140673420267587
38.88,0.015259394158060796
38.96,0.01658405957132725
39.04,0.018029159581016335
39.12,0.0195754806184356
39.2,0.021196543068578506
39.28,0.022858839485279007
39.36,0.024522598033083556
39.44,0.02614308495047401
39.52,0.027672410372353892
39.6,0.029061749943087578
39.68,0.030263846200465606
39.76,0.031235614832847855
39.84,0.0319406570768102
39.92,0.03235147471221422
40.0,0.03245120013555808
40.08,0.03223469009208531
40.160000000000004,0.0317088844695411
40.24,0.03089239552171519
40.32,0.029814360906708443
40.4,0.028512658346026152
40.480000000000004,0.027031633376841776
40.56,0.025419528873687564
40.64,0.023725822233615003
40.72,0.021998672399841386
40.800000000000004,0.020282655864900717
40.88,0.01861693226909242
40.96,0.01703393155956469
41.04,0.015558601982533976
41.12,0.014208207395383473
41.2,0.012992618579020194
41.28,0.01191501006233359
41.36,0.01097285340938076
41.44,0.010159090239463802
41.52,0.009463372250398238
41.6,0.008873268906441162
41.68,0.008375363318224464
41.76,0.007956180100511913
41.84,0.007602912790350075
41.92,0.007303940401138988
42.0,0.007049141205774882
42.08,0.006830025922087784
42.160000000000004,0.0066397218050424445
42.24,0.0064728439491234125
42.32,0.006325290960561931
42.4,0.006193999878480864
42.480000000000004,0.006076690691395495
42.56,0.005971624868813135
42.64,0.005877395767933057
42.72,0.005792762209403854
42.800000000000004,0.005716530424474142
42.88,0.005647484299422536
42.96,0.00558435959764582
43.04,0.005525854734532458
43.12,0.005470668735577987
43.2,0.005417556170809125
43.28,0.005365389014620517
43.36,0.005313216367390326
43.44,0.005260314595700189
43.52,0.005206222481880726
43.6,0.0051507581950231696
43.68,0.005094017089140451
43.76,0.005036351311012224
43.84,0.004978333812141614
43.92,0.004920710508302282
44.0,0.0048643449735390285
44.08,0.004810160204046189
44.160000000000004,0.004759081698855602
44.24,0.004711985471791526
44.32,0.004669653746941548
44.4,0.0046327401180990945
44.480000000000004,0.004601744983303967
44.56,0.004577001191495029
44.64,0.004558669125510938
44.72,0.004546739930801616
44.800000000000004,0.004541045290679495
44.88,0.004541272031535273
44.96,0.004546979883457451
45.04,0.00455762088250153
45.12,0.004572559138313536
45.2,0.0045910899670707165
45.28,0.004612457674852228
45.36,0.004635871550003898
45.44,0.0046605198727942
45.52,0.004685581971001218
45.6,0.00471023853878429
45.68,0.004733680591564888
45.76,0.0047551175483938335
45.84,0.004773785009653808
45.92,0.004788952824066805
46.0,0.004799934006501231
46.08,0.004806094970632611
46.160000000000004,0.004806867376422582
46.24,0.004801761667191946
46.32,0.004790382099190745
46.4,0.004772442771845929
46.480000000000004,0.004747783881430927
46.56,0.004716387182875318
46.64,0.004678389493962525
46.72,0.004634093050766832
46.800000000000004,0.004583971652494601
46.88,0.004528671834536074
46.96,0.0044690087797376495
47.04,0.004405957298184333
47.12,0.004340638931254158
47.2,0.0042743070001442784
47.28,0.004208332136052956
47.36,0.0041441913962231985
47.44,0.004083464375198437
47.52,0.004027839651438592
47.6,0.003979134364632455
47.68,0.0039393286226921224
47.76,0.003910614755394202
47.84,0.0038954591890709434
47.92,0.003896672014702257
48.0,0.00391747635029251
48.08,0.003961566642226629
48.160000000000004,0.004033142483082647
48.24,0.004136902786778876
48.32,0.004277984726911554
48.4,0.004461833154060946
48.480000000000004,0.004693989606748827
48.56,0.004979795683546714
48.64,0.005324013359729665
48.72,0.005730374404865346
48.800000000000004,0.006201081640170979
48.88,0.006736295297334622
48.96,0.00733364689021505
49.04,0.007987829363612867
49.120000000000005,0.008690314488894128
49.2,0.009429245469797561
49.28,0.010189543934868671
49.36,0.0109532560264557
49.44,0.011700143018675401
49.52,0.012408499438730253
49.6,0.01305615829393772
49.68,0.013621621380910248
49.76,0.014085235493606248
49.84,0.014430325053808
49.92,0.01464418997418412
50.0,0.014718885163474919
50.08,0.014651714583984923
50.160000000000004,0.014445396617068316
50.24,0.014107886153611488
50.32,0.013651869125448062
50.4,0.013093973729229932
50.480000000000004,0.012453766204992226
50.56,0.011752615219346053
50.64,0.011012516152312645
50.72,0.010254964530551098
50.800000000000004,0.009499957263459907
50.88,0.008765182969186231
50.96,0.008065440945516904
51.04,0.0074123049700706815
51.120000000000005,0.006814025753260778
51.2,0.0062756467572587515
51.28,0.0057992938315974685
51.36,0.005384590534281263
51.44,0.005029148176478333
51.52,0.004729081960105873
51.6,0.004479510998837873
51.68,0.004275009180058267
51.76,0.004109984331208353
51.84,0.003978973707642608
51.92,0.0038768533733665733
52.0,0.003798966868532108
52.08,0.003741184246833021
52.160000000000004,0.0036999060232089515
52.24,0.003672027943639536
52.32,0.0036548820928847432
52.4,0.0036461681103813585
52.480000000000004,0.003643885640619857
52.56,0.003646276036433421
52.64,0.0036517781434308033
52.72,0.0036590000296284064
52.800000000000004,0.0036667060122685686
52.88,0.0036738164175163356
52.96,0.0036794162547652137
53.04,0.00368276839426758
53.120000000000005,0.0036833268465943014
53.2,0.003680746253093511
53.28,0.0036748845764715283
53.36,0.0036657970835606273
53.44,0.003653720892113697
53.52,0.0036390504779561976
53.6,0.003622305501086178
53.68,0.0036040930353983683
53.76,0.003585066738547313
53.84,0.003565885672397245
53.92,0.0035471754055175554
54.0,0.0035294937423975352
54.08,0.0035133029850947816
54.160000000000004,0.0034989500990469775
54.24,0.003486655577402862
54.32,0.0034765112196371065
54.4,0.0034684864919495135
54.480000000000004,0.0034624426413566744
54.56,0.003458153308428108
54.64,0.00345533003786154
54.72,0.003453650832963965
54.800000000000004,0.003452789750724868
54.88,0.0034524454984133
54.96,0.0034523670772399298
55.04,0.003452374724396065
