Frequency,PSD
6.0,0.40612327224550815
6.08,0.40657542542527003
6.16,0.40748024888007495
6.24,0.4088387241792435
6.32,0.41065219274843884
6.4,0.41292220057738904
6.48,0.4156502944083441
6.5600000000000005,0.41883777257848964
6.640000000000001,0.4224853949176659
6.72,0.42659305753950016
6.8,0.43115943997790707
6.88,0.4361816338498282
6.96,0.44165476397870607
7.04,0.4475716145773908
7.12,0.453922274533013
7.2,0.46069381692074146
7.28,0.46787002846148473
7.36,0.4754312046067299
7.44,0.4833540251822285
7.5200000000000005,0.49161152398553587
7.6000000000000005,0.5001731633874871
7.68,0.5090050218598053
7.76,0.5180700985169369
7.84,0.527328734347266
7.92,0.5367391449911729
8.0,0.5462580549138991
8.08,0.5558414178609608
8.16,0.5654452038286907
8.24,0.5750262286879794
8.32,0.5845429993051555
8.4,0.5939565447189028
8.48,0.6032312028202551
8.56,0.6123353321525048
8.64,0.6212419199442877
8.72,0.6299290602900088
8.8,0.6383802804080279
8.88,0.6465846979870922
8.96,0.6545369985694759
9.040000000000001,0.662237228466266
9.120000000000001,0.6696904055776818
9.200000000000001,0.6769059574059775
9.28,0.6838970022072776
9.36,0.6906794953531324
9.44,0.6972712683114026
9.52,0.7036909919958947
9.6,0.7099570994071605
9.68,0.7160867043761141
9.76,0.7220945537636071
9.84,0.7279920496517444
9.92,0.7337863759259211
10.0,0.7394797602763165
10.08,0.7450688981712659
10.16,0.7505445599357043
10.24,0.7558913958982015
10.32,0.7610879478657033
10.4,0.7661068681783105
10.48,0.7709153405299817
10.56,0.7754756898611503
10.64,0.7797461621789686
10.72,0.78368184937249
10.8,0.7872357291776595
10.88,0.7903597865980948
10.96,0.7930061804555576
11.040000000000001,0.7951284174398381
11.120000000000001,0.7966824961135373
11.200000000000001,0.7976279848106047
11.28,0.7979290001981787
11.36,0.7975550573403843
11.44,0.796481767244805
11.52,0.7946913638708111
11.6,0.7921730491747723
11.68,0.7889231516705129
11.76,0.784945100887505
11.84,0.7802492267062928
11.92,0.7748523985480104
12.0,0.7687775245312738
12.08,0.7620529347698958
12.16,0.7547116758115433
12.24,0.7467907447202784
12.32,0.7383302914661272
12.4,0.7293728171557201
12.48,0.7199623933409033
12.56,0.7101439243579588
12.64,0.6999624706074634
12.72,0.6894626461456186
12.8,0.6786880992003144
12.88,0.6676810795266439
12.96,0.6564820921366542
13.040000000000001,0.6451296331034535
13.120000000000001,0.6336600000310668
13.200000000000001,0.6221071675240843
13.280000000000001,0.6105027166495482
13.36,0.5988758069595733
13.44,0.5872531800788792
13.52,0.5756591850451951
13.6,0.5641158173670247
13.68,0.5526427659456021
13.76,0.5412574643913705
13.84,0.5299751456421535
13.92,0.5188089009636325
14.0,0.5077697462101689
14.08,0.4968666995078488
14.16,0.4861068751975995
14.24,0.47549559889849796
14.32,0.46503654792421384
14.4,0.45473192006161256
14.48,0.4445826319962324
14.56,0.43458854657708135
14.64,0.42474872581174833
14.72,0.4150617041462068
14.8,0.4055257743892768
14.88,0.3961392767583983
14.96,0.3869008801006745
15.040000000000001,0.3778098435016273
15.120000000000001,0.36886624631786374
15.200000000000001,0.36007117520138365
15.280000000000001,0.3514268579209735
15.36,0.34293673568451455
15.44,0.3346054681384688
15.52,0.32643886814476475
15.6,0.31844376665949686
15.68,0.31062781139112855
15.76,0.30299920621688575
15.84,0.29556640140361223
15.92,0.288337747342794
16.0,0.2813211266178832
16.080000000000002,0.2745235806530009
16.16,0.26795094785822154
16.240000000000002,0.2616075300406172
16.32,0.2554958028874047
16.4,0.249616184586337
16.48,0.24396687420843077
16.56,0.23854376845565178
16.64,0.23334046191856292
16.72,0.22834833226632364
16.8,0.22355670798795288
16.88,0.21895311260761968
16.96,0.21452357589024085
17.04,0.21025299960355126
17.12,0.20612556305141227
17.2,0.20212515195092923
17.28,0.19823579336591013
17.36,0.19444207936325397
17.44,0.19072956281657866
17.52,0.1870851102911561
17.6,0.18349719911666085
17.68,0.17995614846764424
17.76,0.17645427737934644
17.84,0.17298598596526527
17.92,0.16954775950243486
18.0,0.16613809834260085
18.080000000000002,0.1627573796358061
18.16,0.1594076594803679
18.240000000000002,0.15609242622928823
18.32,0.15281631720870725
18.400000000000002,0.1495848119943965
18.48,0.14640391563805502
18.56,0.14327984486091197
18.64,0.14021872929316892
18.72,0.13722633841545742
18.8,0.1343078430538525
18.88,0.13146761820712724
18.96,0.1287090917636012
19.04,0.1260346414134554
19.12,0.12344553989123294
19.2,0.12094194668943266
19.28,0.11852294264696328
19.36,0.11618660239450322
19.44,0.11393009856926228
19.52,0.1117498310091894
19.6,0.10964157379565416
19.68,0.10760063301048131
19.76,0.1056220083696429
19.84,0.10370055244290027
19.92,0.10183112191052417
20.0,0.10000871618665334
20.080000000000002,0.09822859969665998
20.16,0.09648640508021147
20.240000000000002,0.09477821555638569
20.32,0.09310062559455116
20.400000000000002,0.09145077985633492
20.48,0.08982639109097415
20.56,0.0882257382685167
20.64,0.0866476467203488
20.72,0.08509145242819979
20.8,0.08355695286942064
20.88,0.08204434699900787
20.96,0.08055416703964842
21.04,0.07908720477177959
21.12,0.07764443497666314
21.2,0.07622693859505057
21.28,0.07483582802813632
21.36,0.07347217682992141
21.44,0.07213695582289707
21.52,0.07083097741314093
21.6,0.06955484958744743
21.68,0.0683089407456526
21.76,0.06709335615922471
21.84,0.06590792645798983
21.92,0.06475220813882449
22.0,0.063625495674225
22.080000000000002,0.06252684438835442
22.16,0.06145510287890692
22.240000000000002,0.060408953411459576
22.32,0.05938695841553056
22.400000000000002,0.05838761098381108
22.48,0.057409387131259745
22.56,0.056450797518733414
22.64,0.05551043639217914
22.72,0.054587025633706765
22.8,0.05367945206049004
22.88,0.052786796431578575
22.96,0.051908353016741425
23.04,0.05104363902679751
23.12,0.05019239367993955
23.2,0.04935456716000172
23.28,0.04853030018680432
23.36,0.047719895342956474
23.44,0.046923781665443316
23.52,0.04614247429703344
23.6,0.04537653118933463
23.68,0.0446265089484208
23.76,0.043892919912702354
23.84,0.04317619245353705
23.92,0.042476636299210384
24.0,0.04179441441370703
24.080000000000002,0.04112952262795962
24.16,0.04048177784031165
24.240000000000002,0.03985081519361415
24.32,0.039236094218175394
24.400000000000002,0.03863691352181418
24.48,0.03805243322850861
24.560000000000002,0.03748170403169365
24.64,0.03692370145076046
24.72,0.03637736367045701
24.8,0.035841631210174585
24.88,0.03531548661753752
24.96,0.034797992408853215
25.04,0.034288325584934706
25.12,0.03378580722840603
25.2,0.03328992592870522
25.28,0.03280035407186081
25.36,0.03231695635990936
25.44,0.03183979027421203
25.52,0.031369098551749235
25.6,0.03090529408748179
25.68,0.030448937993485164
25.76,0.030000711822649687
25.84,0.02956138518929584
25.92,0.029131780181830946
26.0,0.028712734057599255
26.080000000000002,0.02830506173486203
26.16,0.027909519552646155
26.240000000000002,0.027526771660730025
26.32,0.027157360237298204
26.400000000000002,0.02680168052146832
26.48,0.026459961404637106
26.560000000000002,0.026132252062330292
26.64,0.025818414841142587
26.72,0.025518124357117974
26.8,0.025230872524831808
26.88,0.02495597903075575
26.96,0.024692606597897394
27.04,0.024439780265992358
27.12,0.024196409834477028
27.2,0.023961314582986143
27.28,0.023733249392549886
27.36,0.023510931434259877
27.44,0.023293066663692963
27.52,0.02307837545080677
27.6,0.02286561677812599
27.68,0.022653610547135966
27.76,0.02244125763717348
27.84,0.02222755745746326
27.92,0.02201162281764472
28.0,0.021792692013232442
28.080000000000002,0.021570138079668764
28.16,0.021343475213091073
28.240000000000002,0.021112362389866284
28.32,0.020876604243257234
28.400000000000002,0.020636149277492
28.48,0.020391085520079438
28.560000000000002,0.02014163373506114
28.64,0.019888138344905028
28.72,0.019631056237887808
28.8,0.019370943671109572
28.88,0.019108441515844933
28.96,0.018844259130083477
29.04,0.018579157180593893
29.12,0.01831392977112115
29.2,0.018049386261703607
29.28,0.01778633318417439
29.36,0.017525556668570752
29.44,0.017267805792946213
29.52,0.017013777254074436
29.6,0.016764101728609905
29.68,0.016519332253915123
29.76,0.016279934906096912
29.84,0.016046281991416517
29.92,0.01581864789814281
30.0,0.015597207681332166
30.080000000000002,0.01538203837535595
30.16,0.015173122950629303
30.240000000000002,0.014970356754381416
30.32,0.01477355620268123
30.400000000000002,0.014582469424521663
30.48,0.014396788500568847
30.560000000000002,0.014216162891064001
30.64,0.014040213610955149
30.72,0.013868547687087823
30.8,0.013700772423260128
30.88,0.013536509004987813
30.96,0.01337540499724437
31.04,0.013217145325128122
31.12,0.01306146137869099
31.2,0.012908137947773495
31.28,0.012757017768770477
31.36,0.01260800355037086
31.44,0.012461057436500993
31.52,0.012316197958631644
31.6,0.01217349462260771
31.68,0.01203306036354215
31.76,0.01189504218239772
31.84,0.011759610346315752
31.92,0.011626946588591534
32.0,0.011497231781163356
32.08,0.011370633570963379
32.160000000000004,0.011247294470739452
32.24,0.011127320875046233
32.32,0.01101077343398135
32.4,0.010897659162535423
32.480000000000004,0.010787925594578036
32.56,0.010681457210364474
32.64,0.01057807427841987
32.72,0.010477534160270745
32.8,0.010379535033471842
32.88,0.010283721898299583
32.96,0.010189694649839843
33.04,0.01009701792301728
33.12,0.010005232356165038
33.2,0.009913866871101382
33.28,0.009822451536036551
33.36,0.009730530562843297
33.44,0.00963767499268273
33.52,0.009543494643214419
33.6,0.009447648925679637
33.68,0.009349856189315865
33.76,0.009249901311639632
33.84,0.009147641323402369
33.92,0.009043008933400442
34.0,0.008936013897456678
34.08,0.008826742254397156
34.160000000000004,0.008715353526328021
34.24,0.008602076047889137
34.32,0.008487200646683186
34.4,0.008371072942592374
34.480000000000004,0.008254084565658484
34.56,0.008136663609883002
34.64,0.008019264643660054
34.72,0.007902358587397946
34.800000000000004,0.00778642274664914
34.88,0.007671931256867785
34.96,0.0075593461561827315
35.04,0.007449109258191804
35.12,0.007341634950489095
35.2,0.007237303999258551
35.28,0.00713645839816581
35.36,0.0070393972629720514
35.44,0.0069463737431656545
35.52,0.006857592899262185
35.6,0.006773210479366543
35.68,0.0066933325206902225
35.76,0.006618015699937232
35.84,0.006547268359482999
35.92,0.0064810521423629645
36.0,0.0064192841766446415
36.08,0.0063618397570314785
36.160000000000004,0.006308555477243714
36.24,0.006259232769682915
36.32,0.00621364180856448
36.4,0.006171525728877222
36.480000000000004,0.0061326051065694045
36.56,0.006096582635950575
36.64,0.006063147929563574
36.72,0.00603198235497157
36.800000000000004,0.006002763813475492
36.88,0.005975171359041705
36.96,0.0059488895529078815
37.04,0.0059236124513377935
37.12,0.005899047131395122
37.2,0.005874916672472266
37.28,0.005850962529401095
37.36,0.005826946255478878
37.44,0.005802650559612099
37.52,0.005777879709557449
37.6,0.00575245932137237
37.68,0.005726235601948245
37.76,0.005699074135292691
37.84,0.005670858322520075
37.92,0.005641487599105311
38.0,0.005610875559904114
38.08,0.005578948122288559
38.160000000000004,0.005545641850349254
38.24,0.0055109025488808625
38.32,0.005474684215508129
38.4,0.0054369484139806905
38.480000000000004,0.005397664102782357
38.56,0.00535680792237552
38.64,0.005314364913421488
38.72,0.005270329608922115
38.800000000000004,0.005224707417087037
38.88,0.005177516190376636
38.96,0.00512878786078705
39.04,0.005078570012931054
39.12,0.005026927265331031
39.2,0.004973942336641266
39.28,0.004919716686904497
39.36,0.004864370643713153
39.44,0.004808042948132251
39.52,0.004750889684125808
39.6,0.004693082586360851
39.68,0.004634806752989589
39.76,0.004576257820571816
39.84,0.004517638686123283
39.92,0.004459155884861507
40.0,0.0044010157504427265
40.08,0.00434342049642154
40.160000000000004,0.004286564362849252
40.24,0.004230629970188504
40.32,0.0041757850142985845
40.4,0.004122179421678546
40.480000000000004,0.004069943064298467
40.56,0.0040191841092419595
40.64,0.003969988051288672
40.72,0.003922417447746844
40.800000000000004,0.003876512345697058
40.88,0.0038322913635651257
40.96,0.003789753362869212
41.04,0.003748879623095445
41.12,0.003709636413927234
41.2,0.0036719778451075333
41.28,0.0036358488656842254
41.36,0.0036011882814568396
41.44,0.0035679316623008677
41.52,0.003536014019485524
41.6,0.003505372146824057
41.68,0.0034759465378988086
41.76,0.003447682813970316
41.84,0.0034205326224918736
41.92,0.003394453993360324
42.0,0.0033694111678169705
42.08,0.003345373941999975
42.160000000000004,0.0033223165921069265
42.24,0.0033002164696900116
42.32,0.003279052372501894
42.4,0.0032588028075572224
42.480000000000004,0.0032394442678749125
42.56,0.0032209496423210755
42.64,0.003203286869003369
42.72,0.0031864179271690616
42.800000000000004,0.0031702982412779327
42.88,0.0031548765450544218
42.96,0.0031400952243416285
43.04,0.0031258911272648033
43.12,0.0031121968004119063
43.2,0.0030989420824098415
43.28,0.003086055963161397
43.36,0.0030734685997009514
43.44,0.003061113369277474
43.52,0.0030489288376461463
43.6,0.0030368605258306383
43.68,0.0030248623714999607
43.76,0.003012897800700803
43.84,0.003000940350685287
43.92,0.002988973813224105
44.0,0.002976991898148299
44.08,0.0029649974467632536
44.160000000000004,0.0029530012522157017
44.24,0.0029410205669413384
44.32,0.0029290773944450933
44.4,0.002917196672752049
44.480000000000004,0.0029054044593301246
44.56,0.002893726222072011
44.64,0.0028821853286251174
44.72,0.002870801807942731
44.800000000000004,0.002859591434977984
44.88,0.002848565163657982
44.96,0.002837728906718894
45.04,0.00282708363559348
45.12,0.00281662575125052
45.2,0.0028063476592622184
45.28,0.0027962384706950016
45.36,0.002786284745403345
45.44,0.0027764711962539445
45.52,0.002766781281365845
45.6,0.0027571976259192343
45.68,0.0027477022341594343
45.76,0.0027382764744346595
45.84,0.0027289008435975835
45.92,0.0027195545401169884
46.0,0.002710214895894434
46.08,0.002700856733545594
46.160000000000004,0.0026914517273992147
46.24,0.0026819678518516
46.32,0.002672368999464946
46.4,0.002662614843407865
46.480000000000004,0.002652661004936621
46.56,0.0026424595676173036
46.64,0.0026319599571106127
46.72,0.002621110180237047
46.800000000000004,0.0026098583913495253
46.88,0.0025981547296019016
46.96,0.002585953349120134
47.04,0.002573214546885312
47.12,0.0025599068814529877
47.2,0.002546009170292362
47.28,0.002531512254874361
47.36,0.0025164204306387175
47.44,0.002500752453078771
47.52,0.0024845420505599514
47.6,0.0024678378978901933
47.68,0.002450703030661989
47.76,0.002433213707410658
47.84,0.0024154577530960224
47.92,0.0023975324417811923
48.0,0.0023795419973710735
48.08,0.002361594807763698
48.160000000000004,0.002343800459078966
48.24,0.0023262667023218712
48.32,0.002309096464934747
48.4,0.0022923850144862187
48.480000000000004,0.0022762173718748717
48.56,0.002260666057737771
48.64,0.0022457892392842814
48.72,0.0022316293266037325
48.800000000000004,0.0022182120487306
48.88,0.002205546021392668
48.96,0.002193622801286068
49.04,0.00218241740659356
49.120000000000005,0.002171889270742716
49.2,0.002161983586302929
49.28,0.002152632988494888
49.36,0.002143759522813451
49.44,0.002135276838481359
49.52,0.002127092548413617
49.6,0.002119110696659106
49.68,0.002111234275460304
49.76,0.0021033677357540706
49.84,0.002095419436856892
49.92,0.0020873039830656553
50.0,0.0020789443969241456
50.08,0.0020702740810289895
50.160000000000004,0.00206123852266411
50.24,0.002051796698516496
50.32,0.0020419221405147334
50.4,0.0020316036287625593
50.480000000000004,0.0020208454838354685
50.56,0.002009667438567248
50.64,0.0019981040789143582
50.72,0.001986203854507408
50.800000000000004,0.0019740276718479763
50.88,0.0019616470964543137
50.96,0.0019491422041004874
51.04,0.0019365991350575248
51.120000000000005,0.00192410741823041
51.2,0.001911757143638164
51.28,0.0018996360710280338
51.36,0.0018878267689825291
51.44,0.001876403882049623
51.52,0.0018654316228406374
51.6,0.0018549615814179334
51.68,0.0018450309356536458
51.76,0.0018356611336821545
51.84,0.001826857103574978
51.92,0.0018186070264489176
52.0,0.001810882688211635
52.08,0.0018036404029349914
52.160000000000004,0.0017968224784574091
52.24,0.0017903591732846072
52.32,0.0017841710742487298
52.4,0.0017781718076196641
52.480000000000004,0.001772270983314457
52.56,0.001766377263130621
52.64,0.0017604014399900687
52.72,0.0017542594162038138
52.800000000000004,0.0017478749746684293
52.88,0.0017411822473707532
52.96,0.001734127800034754
53.04,0.0017266722694269602
53.120000000000005,0.0017187915098266105
53.2,0.0017104772264206047
53.28,0.0017017370948513907
53.36,0.001692594386735755
53.44,0.0016830871397473463
53.52,0.001673266926927714
53.6,0.0016631972926018767
53.68,0.001652951931156348
53.76,0.0016426126897326658
53.84,0.0016322674765926288
53.92,0.0016220081537212869
54.0,0.0016119284855590707
54.08,0.0016021222061508313
54.160000000000004,0.0015926812551816092
54.24,0.0015836942200897573
54.32,0.0015752450075261822
54.4,0.0015674117536555743
54.480000000000004,0.001560265969909948
54.56,0.0015538719094411251
54.64,0.0015482861302310925
54.72,0.001543557223955877
54.800000000000004,0.0015397256755270345
54.88,0.0015368238168094559
54.96,0.0015348758392801822
55.04,0.0015338978341232143
