Frequency,PSD
6.0,0.5730144187278066
6.08,0.5731823901541624
6.16,0.5735190804413058
6.24,0.5740259656803544
6.32,0.5747052132727143
6.4,0.5755596264340129
6.48,0.5765925711786934
6.5600000000000005,0.5778078866288007
6.640000000000001,0.5792097797055802
6.72,0.5808027054789878
6.8,0.5825912346670075
6.88,0.5845799099920251
6.96,0.5867730933128963
7.04,0.5891748056554803
7.12,0.591788562457219
7.2,0.5946172065180115
7.28,0.5976627413046796
7.36,0.6009261673837489
7.44,0.6044073248507279
7.5200000000000005,0.6081047446770292
7.6000000000000005,0.6120155119018338
7.68,0.6161351435495495
7.76,0.6204574840489295
7.84,0.6249746207632302
7.92,0.6296768220093478
8.0,0.6345524996466425
8.08,0.6395881979541587
8.16,0.6447686100913519
8.24,0.6500766229577276
8.32,0.6554933907389077
8.4,0.6609984368607089
8.48,0.6665697834812934
8.56,0.6721841070485501
8.64,0.6778169178514246
8.72,0.6834427609168245
8.8,0.6890354350653651
8.88,0.6945682264569403
8.96,0.700014152547474
9.040000000000001,0.7053462120564891
9.120000000000001,0.7105376363244665
9.200000000000001,0.7155621373300474
9.28,0.7203941476473265
9.36,0.7250090477568737
9.44,0.7293833763807165
9.52,0.7334950198875854
9.6,0.7373233773023715
9.68,0.7408494980413707
9.76,0.7440561901673247
9.84,0.7469280976972171
9.92,0.7494517462805017
10.0,0.7516155573732336
10.08,0.7534098318406977
10.16,0.7548267047034483
10.24,0.7558600734755669
10.32,0.7565055032070358
10.4,0.7567601119140623
10.48,0.7566224405443369
10.56,0.7560923119641992
10.64,0.755170683660938
10.72,0.7538594989195031
10.8,0.7521615411566117
10.88,0.7500802958788239
10.96,0.7476198243812443
11.040000000000001,0.7447846528307309
11.120000000000001,0.7415796797963257
11.200000000000001,0.7380101046178156
11.28,0.7340813782614322
11.36,0.7297991775223239
11.44,0.7251694026207428
11.52,0.7201981974275871
11.6,0.7148919907698656
11.68,0.7092575565316823
11.76,0.7033020896039744
11.84,0.6970332941666759
11.92,0.6904594803277114
12.0,0.6835896648083453
12.08,0.6764336711642924
12.16,0.6690022249729439
12.24,0.6613070395010522
12.32,0.6533608875919772
12.4,0.6451776558704516
12.48,0.6367723778451362
12.56,0.62816124308049
12.64,0.6193615802919179
12.72,0.6103918129711626
12.8,0.6012713869497847
12.88,0.5920206701331296
12.96,0.5826608254605683
13.040000000000001,0.5732136589452599
13.120000000000001,0.5637014453943291
13.200000000000001,0.5541467350859203
13.280000000000001,0.5445721452631179
13.36,0.5350001407792457
13.44,0.5254528085809639
13.52,0.515951630935244
13.6,0.5065172623881175
13.68,0.49716931538579284
13.76,0.4879261592952788
13.84,0.4788047372390952
13.92,0.469820404717904
14.0,0.46098679345022514
14.08,0.4523157032270322
14.16,0.44381702388044514
14.24,0.4354986887210815
14.32,0.4273666600299903
14.4,0.4194249464207686
14.48,0.4116756511372692
14.56,0.4041190496429756
14.64,0.39675369420853207
14.72,0.38957654263074176
14.8,0.3825831077335098
14.88,0.3757676239194885
14.96,0.3691232267681406
15.040000000000001,0.36264214151562535
15.120000000000001,0.3563158762049604
15.200000000000001,0.35013541535860787
15.280000000000001,0.3440914101941125
15.36,0.33817436166795434
15.44,0.3323747929821509
15.52,0.3266834086091247
15.6,0.32109123736804024
15.68,0.31558975760438196
15.76,0.3101710030674771
15.84,0.3048276486315725
15.92,0.2995530755489435
16.0,0.29434141644336936
16.080000000000002,0.2891875807355044
16.16,0.28408726162636
16.240000000000002,0.2790369261414327
16.32,0.2740337900483899
16.4,0.2690757797004959
16.48,0.26416148302337855
16.56,0.2592900919540033
16.64,0.25446133865985093
16.72,0.24967542781743518
16.8,0.24493296711850313
16.88,0.24023489800717063
16.96,0.2355824284407924
17.04,0.2309769692213452
17.12,0.2264200751728545
17.2,0.22191339215441247
17.28,0.21745861060784535
17.36,0.21305742605381817
17.44,0.20871150667895572
17.52,0.20442246790713386
17.6,0.20019185362691738
17.68,0.19602112355916917
17.76,0.19191164609762376
17.84,0.18786469584265864
17.92,0.1838814549750482
18.0,0.17996301758125086
18.080000000000002,0.1761103960424968
18.16,0.17232452863337944
18.240000000000002,0.16860628753758794
18.32,0.1649564865740208
18.400000000000002,0.1613758880305061
18.48,0.15786520811919139
18.56,0.15442512069188144
18.64,0.15105625897984992
18.72,0.14775921524603103
18.8,0.14453453835355803
18.88,0.14138272935963947
18.96,0.13830423533464897
19.04,0.13529944168086494
19.12,0.13236866328200075
19.2,0.12951213485292987
19.28,0.12673000087887312
19.36,0.1240223055356173
19.44,0.12138898296845542
19.52,0.11882984827944497
19.6,0.11634458953257147
19.68,0.11393276103715051
19.76,0.11159377811406725
19.84,0.10932691349009967
19.92,0.10713129540538596
20.0,0.10500590746066624
20.080000000000002,0.10294959017660836
20.16,0.10096104418930366
20.240000000000002,0.09903883496546229
20.32,0.09718139888910413
20.400000000000002,0.09538705054924995
20.48,0.09365399104548092
20.56,0.0919803171249381
20.64,0.09036403096969335
20.72,0.08880305046633319
20.8,0.08729521980870197
20.88,0.0858383203084076
20.96,0.08443008131416824
21.04,0.0830681911685488
21.12,0.08175030815733413
21.2,0.08047407143106046
21.28,0.07923711189859092
21.36,0.07803706310791499
21.44,0.0768715721386397
21.52,0.0757383105334082
21.6,0.07463498529154672
21.68,0.07355934993777258
21.76,0.07250921566238025
21.84,0.07148246250777904
21.92,0.07047705055077476
22.0,0.06949103100190546
22.080000000000002,0.0685225571140287
22.16,0.0675698947637809
22.240000000000002,0.06663143254318121
22.32,0.0657056911760745
22.400000000000002,0.06479133205675382
22.48,0.06388716469726521
22.56,0.0629921528665433
22.64,0.06210541920942578
22.72,0.0612262481471182
22.8,0.060354086882893766
22.88,0.05948854436741604
22.96,0.058629388116412565
23.04,0.05777653881855074
23.12,0.05693006272196961
23.2,0.05609016184251251
23.28,0.05525716209353524
23.36,0.054431499494372176
23.44,0.05361370467016542
23.52,0.05280438590788043
23.6,0.05200421108000523
23.68,0.05121388878693823
23.76,0.05043414909983709
23.84,0.04966572430642663
23.92,0.04890933007196292
24.0,0.0481656474255912
24.080000000000002,0.04743530596845599
24.16,0.0467188686742969
24.240000000000002,0.04601681861641899
24.32,0.045329547907843756
24.400000000000002,0.04465734908541295
24.48,0.04400040910528883
24.560000000000002,0.04335880604858826
24.64,0.04273250856390677
24.72,0.04212137800051002
24.8,0.04152517311429742
24.88,0.04094355716056142
24.96,0.0403761071252528
25.04,0.03982232479190989
25.12,0.03928164929633679
25.2,0.03875347078692957
25.28,0.03823714478626106
25.36,0.03773200683976791
25.44,0.03723738704029387
25.52,0.03675262403257149
25.6,0.03627707812876502
25.68,0.03581014320385958
25.76,0.03535125708650021
25.84,0.03489991021512904
25.92,0.03445565238893178
26.0,0.03401809750610196
26.080000000000002,0.03358692624601268
26.16,0.03316188671494216
26.240000000000002,0.03274279313488787
26.32,0.032329522709880223
26.400000000000002,0.031922010852382464
26.48,0.03152024499250772
26.560000000000002,0.031124257223872916
26.64,0.030734116061337795
26.72,0.03034991759735424
26.8,0.029971776345365547
26.88,0.029599816051083822
26.96,0.02923416073638757
27.04,0.02887492621710533
27.12,0.02852221230638512
27.2,0.028176095881167602
27.28,0.027836624952031125
27.36,0.027503813837910555
27.44,0.02717763950842335
27.52,0.02685803911915785
27.6,0.02654490873050487
27.68,0.026238103169465773
27.76,0.025937436967102025
27.84,0.02564268628242524
27.92,0.025353591706803617
28.0,0.025069861831360347
28.080000000000002,0.024791177453148894
28.16,0.02451719629364809
28.240000000000002,0.024247558104737495
28.32,0.023981890042092363
28.400000000000002,0.023719812193082074
28.48,0.02346094315502763
28.560000000000002,0.023204905569254253
28.64,0.022951331526173444
28.72,0.02269986776600609
28.8,0.02245018060833389
28.88,0.022201960551150896
28.96,0.02195492648635277
29.04,0.021708829483691627
29.12,0.0214634560993094
29.2,0.021218631168308133
29.28,0.020974220043813455
29.36,0.020730130248038055
29.44,0.0204863125043808
29.52,0.02024276112403259
29.6,0.019999513726226822
29.68,0.01975665027844914
29.76,0.019514291451750352
29.84,0.01927259629681257
29.92,0.019031759258496015
30.0,0.018792006559981877
30.080000000000002,0.018553592001968072
30.16,0.018316792237177897
30.240000000000002,0.018081901595150128
30.32,0.01784922654626073
30.400000000000002,0.017619079906557783
30.48,0.017391774895627776
30.560000000000002,0.017167619167783758
30.64,0.016946908941861696
30.72,0.016729923356469358
30.8,0.016516919175350923
30.88,0.01630812596154507
30.96,0.01610374182926079
31.04,0.015903929869066285
31.12,0.015708815325497057
31.2,0.015518483586994971
31.28,0.015332979026851701
31.36,0.015152304711263921
31.44,0.014976422967474335
31.52,0.01480525678211421
31.6,0.014638691978056208
31.68,0.014476580098104298
31.76,0.014318741906380834
31.84,0.0141649714038902
31.92,0.014015040243914728
32.0,0.013868702425934428
32.08,0.013725699143819527
32.160000000000004,0.013585763665105346
32.24,0.013448626123078861
32.32,0.013314018111859253
32.4,0.013181676986208965
32.480000000000004,0.013051349781914702
32.56,0.012922796688605152
32.64,0.012795794024130206
32.72,0.01267013667742568
32.8,0.012545640004430984
32.88,0.012422141178438676
32.96,0.01229950001171122
33.04,0.012177599278714858
33.12,0.012056344582602305
33.2,0.011935663815285963
33.28,0.011815506267486514
33.36,0.011695841448481832
33.44,0.011576657676041296
33.52,0.011457960495424045
33.6,0.0113397709826426
33.68,0.011222123981851602
33.76,0.011105066320123022
33.84,0.010988655035475643
33.92,0.010872955646300017
34.0,0.01075804048268278
34.08,0.010643987092983614
34.160000000000004,0.010530876732675767
34.24,0.010418792937196913
34.32,0.010307820176523739
34.4,0.010198042586494243
34.480000000000004,0.01008954277053577
34.56,0.009982400665361331
34.64,0.00987669246519717
34.72,0.009772489601037725
34.800000000000004,0.009669857773996433
34.88,0.009568856044815884
34.96,0.009469535984683466
35.04,0.009371940895460411
35.12,0.009276105109958913
35.2,0.009182053384856823
35.28,0.009089800399989353
35.36,0.008999350378050728
35.44,0.008910696838094881
35.52,0.008823822494652578
35.6,0.008738699311867718
35.68,0.00865528871888836
35.76,0.008573541988992947
35.84,0.008493400780786527
35.92,0.00841479783544826
36.0,0.008337657819691488
36.08,0.00826189829999075
36.160000000000004,0.008187430829964516
36.24,0.008114162129704384
36.32,0.008041995333489689
36.4,0.007970831280772361
36.480000000000004,0.007900569824647083
36.56,0.00783111113221788
36.64,0.007762356952312568
36.72,0.007694211827792585
36.800000000000004,0.007626584232170723
36.88,0.007559387613218374
36.96,0.0074925413295847815
37.04,0.007425971470002488
37.12,0.00735961154823249
37.2,0.007293403070380793
37.28,0.007227295974442109
37.36,0.007161248944782934
37.44,0.007095229606685474
37.52,0.0070292146079716095
37.6,0.006963189596085206
37.68,0.006897149099850519
37.76,0.006831096325458193
37.84,0.006765042876135833
37.92,0.006699008404506932
38.0,0.0066330202059079356
38.08,0.006567112760057054
38.160000000000004,0.0065013272274859375
38.24,0.006435710906209709
38.32,0.006370316653262268
38.4,0.0063052022750438
38.480000000000004,0.006240429889951755
38.56,0.006176065266535998
38.64,0.0061121771404154795
38.72,0.006048836513416962
38.800000000000004,0.0059861159388081425
38.88,0.00592408879704435
38.96,0.005862828567075502
39.04,0.0058024080989073894
39.12,0.005742898893701524
39.2,0.005684370398184933
39.28,0.005626889320462353
39.36,0.005570518974443695
39.44,0.005515318659980047
39.52,0.005461343085457356
39.6,0.005408641839001536
39.68,0.005357258913648185
39.76,0.005307232290847222
39.84,0.005258593585561629
39.92,0.0052113677550223916
40.0,0.005165572872000328
40.08,0.005121219962282717
40.160000000000004,0.005078312904980352
40.24,0.005036848393370455
40.32,0.004996815953258594
40.4,0.00495819801532646
40.480000000000004,0.004920970037670248
40.56,0.004885100674677273
40.64,0.004850551988580987
40.72,0.004817279700384341
40.800000000000004,0.00478523347738177
40.88,0.004754357255111019
40.96,0.004724589592254515
41.04,0.004695864057659995
41.12,0.004668109649253681
41.2,0.004641251245087919
41.28,0.0046152100870819985
41.36,0.0045899042981086035
41.44,0.004565249432965136
41.52,0.004541159063386931
41.6,0.00451754539665325
41.68,0.004494319926494454
41.76,0.0044713941139654535
41.84,0.0044486800947396345
41.92,0.00442609140797389
42.0,0.004403543740510046
42.08,0.00438095567882716
42.160000000000004,0.004358249459861345
42.24,0.00433535171066811
42.32,0.0043121941659448595
42.4,0.004288714351745027
42.480000000000004,0.0042648562233120165
42.56,0.004240570744917481
42.64,0.004215816399885872
42.72,0.0041905596196753665
42.800000000000004,0.004164775121921708
42.88,0.00413844614876425
42.96,0.004111564598477417
43.04,0.004084131045438881
43.12,0.004056154645673922
43.2,0.0040276529275954254
43.28,0.003998651470022317
43.36,0.003969183472029873
43.44,0.003939289221605519
43.52,0.003909015472342743
43.6,0.0038784147394725285
43.68,0.0038475445282979727
43.76,0.0038164665095388912
43.84,0.0037852456571406314
43.92,0.0037539493647181874
44.0,0.003722646556991909
44.08,0.0036914068122828863
44.160000000000004,0.00366029951141612
44.24,0.0036293930272179344
44.32,0.003598753967255855
44.4,0.0035684464805765814
44.480000000000004,0.0035385316370408794
44.56,0.0035090668854764577
44.64,0.00348010559437977
44.72,0.0034516966763548183
44.800000000000004,0.003423884294998106
44.88,0.00339670765057711
44.96,0.003370200838726939
45.04,0.0033443927745610905
45.12,0.0033193071731210232
45.2,0.0032949625760620316
45.28,0.0032713724138926786
45.36,0.0032485450930053172
45.44,0.0032264840971450194
45.52,0.003205188093861177
45.6,0.0031846510378260705
45.68,0.003164862264646547
45.76,0.003145806570861911
45.84,0.0031274642781267854
45.92,0.003109811282039198
46.0,0.003092819088551125
46.08,0.003076454843325832
46.160000000000004,0.0030606813616196327
46.24,0.0030454571682006146
46.32,0.003030736558329479
46.4,0.003016469691879114
46.480000000000004,0.0030026027331307888
46.56,0.0029890780486670557
46.64,0.002975834475004123
46.72,0.0029628076662128328
46.800000000000004,0.002949930529762071
46.88,0.002937133756258422
46.96,0.0029243464457139913
47.04,0.0029114968295593235
47.12,0.0028985130839498385
47.2,0.0028853242261221365
47.28,0.0028718610817990084
47.36,0.0028580573080413604
47.44,0.0028438504526819355
47.52,0.0028291830286497795
47.6,0.002814003579258411
47.68,0.0027982677089691613
47.76,0.0027819390533443886
47.84,0.0027649901619179046
47.92,0.0027474032685560063
48.0,0.002729170925566335
48.08,0.002710296480269575
48.160000000000004,0.0026907943759445913
48.24,0.0026706902628757107
48.32,0.0026500209095603293
48.4,0.002628833908865525
48.480000000000004,0.002607187178863095
48.56,0.002585148263126065
48.64,0.0025627934402398626
48.72,0.002540206657037237
48.800000000000004,0.002517478304468624
48.88,0.002494703858938723
48.96,0.0024719824152661003
49.04,0.0024494151400718082
49.120000000000005,0.002427103676313023
49.2,0.0024051485307970653
49.28,0.002383647476842856
49.36,0.0023626940037861123
49.44,0.0023423758437985005
49.52,0.0023227736045570817
49.6,0.0023039595337135538
49.68,0.002285996437974905
49.76,0.002268936775993019
49.84,0.002252821940293831
49.92,0.002237681739236559
50.0,0.0022235340856232785
50.08,0.0022103848941518005
50.160000000000004,0.002198228185558305
50.24,0.0021870463910996993
50.32,0.002176810847098372
50.4,0.0021674824656683044
50.480000000000004,0.0021590125645595294
50.56,0.002151343836333773
50.64,0.002144411434875544
50.72,0.0021381441555894456
50.800000000000004,0.002132465684535033
50.88,0.0021272958912442637
50.96,0.0021225521400064333
51.04,0.0021181505950108176
51.120000000000005,0.0021140074958534566
51.2,0.0021100403815029964
51.28,0.0021061692428266457
51.36,0.0021023175861558177
51.44,0.0020984133930165502
51.52,0.0020943899640257953
51.6,0.0020901866379641025
51.68,0.002085749380086148
51.76,0.0020810312367755893
51.84,0.002075992656580348
51.92,0.002070601680437042
52.0,0.002064834006406391
52.08,0.0020586729365083822
52.160000000000004,0.002052109215124071
52.24,0.0020451407699981043
52.32,0.0020377723680200556
52.4,0.0020300151987378244
52.480000000000004,0.0020218863989391895
52.56,0.0020134085316534083
52.64,0.002004609032603367
52.72,0.0019955196365223794
52.800000000000004,0.00198617579486339
52.88,0.001976616095354447
52.96,0.0019668816926114024
53.04,0.001957015757680994
53.120000000000005,0.0019470629530091415
53.2,0.001937068937935384
53.28,0.0019270799084770756
53.36,0.001917142173903188
53.44,0.001907301771443097
53.52,0.0018976041194551305
53.6,0.001888093708499938
53.68,0.0018788138290419618
53.76,0.0018698063339220349
53.84,0.001861111433325009
53.92,0.0018527675196565885
54.0,0.001844811019587429
54.08,0.0018372762704374577
54.160000000000004,0.0018301954180971382
54.24,0.0018235983337668493
54.32,0.0018175125469288783
54.4,0.0018119631921481344
54.480000000000004,0.0018069729674914897
54.56,0.0018025621025716558
54.64,0.0017987483344414053
54.72,0.0017955468897833463
54.800000000000004,0.0017929704720560588
54.88,0.0017910292524646201
54.96,0.0017897308638303974
55.04,0.0017890803966247662
