Frequency,PSD
6.057142857142857,0.23268501144454695
6.171428571428571,0.23130530367677787
6.285714285714286,0.22915448918826659
6.3999999999999995,0.2272745861107589
6.514285714285714,0.2268550111610687
6.628571428571428,0.22893636599642198
6.742857142857143,0.23419686019220476
6.857142857142857,0.24286671364146165
6.9714285714285715,0.2547538344109708
7.085714285714285,0.2693219496461976
7.2,0.2857638926288072
7.314285714285714,0.30305359848636326
7.428571428571428,0.32000829012305043
7.542857142857143,0.3354089309613478
7.657142857142857,0.3481969844354551
7.771428571428571,0.35770957207733023
7.885714285714285,0.36387400881706244
8.0,0.3672848948048091
8.114285714285714,0.36912793909984076
8.228571428571428,0.37096512050048513
8.342857142857143,0.37442891679780327
8.457142857142857,0.3808851763513834
8.571428571428571,0.39112865846126005
8.685714285714285,0.40518181052334545
8.799999999999999,0.42226576202153915
8.914285714285715,0.4409816430051832
9.028571428571428,0.45967378143768894
9.142857142857142,0.47686970877204393
9.257142857142856,0.4916514443794475
9.371428571428572,0.5038404144092411
9.485714285714286,0.5139633320248239
9.6,0.5230569745768907
9.714285714285714,0.5324107340245723
9.828571428571427,0.5433190671485356
9.942857142857143,0.5568538322001658
10.057142857142857,0.5736264938579709
10.17142857142857,0.5935310378309804
10.285714285714285,0.6155289835658659
10.4,0.6376009797301476
10.514285714285714,0.6569805718755355
10.628571428571428,0.670682628130156
10.742857142857142,0.6761875316754891
10.857142857142858,0.6720344872865218
10.971428571428572,0.6580900811698709
11.085714285714285,0.6353967929359988
11.2,0.6056960722385023
11.314285714285713,0.5708563808766448
11.428571428571429,0.5324494423558721
11.542857142857143,0.4916133073602466
11.657142857142857,0.4491855635237976
11.77142857142857,0.4059669211206382
11.885714285714286,0.362938947435062
12.0,0.3213144700233874
12.114285714285714,0.28240479761604825
12.228571428571428,0.2473839159342236
12.342857142857142,0.21706834868037014
12.457142857142857,0.1918021993481622
12.571428571428571,0.17146950134295225
12.685714285714285,0.15559656523942814
12.799999999999999,0.1434863387923092
12.914285714285715,0.1343431381697874
13.028571428571428,0.12737411005883656
13.142857142857142,0.12186905553326127
13.257142857142856,0.1172576263097507
13.371428571428572,0.11313503756269301
13.485714285714286,0.10924898440096108
13.6,0.10545407535561734
13.714285714285714,0.10165560763262765
13.828571428571427,0.09776914378213405
13.942857142857143,0.09371178482908951
14.057142857142857,0.08942230573113162
14.17142857142857,0.08489277132792533
14.285714285714285,0.08019224807744249
14.4,0.07547260910974117
14.514285714285714,0.07095827817559816
14.628571428571428,0.06692673704090771
14.742857142857142,0.06368231850047888
14.857142857142856,0.061518464879744494
14.971428571428572,0.06066279659036429
15.085714285714285,0.06120950805710458
15.2,0.06305959575490677
15.314285714285713,0.06589936822977152
15.428571428571429,0.06924165957721048
15.542857142857143,0.0725317758131517
15.657142857142857,0.075291619491473
15.77142857142857,0.07725536428825021
15.885714285714284,0.07844909491141971
16.0,0.07918580730323918
16.114285714285714,0.07997724035178708
16.228571428571428,0.08139182986969841
16.34285714285714,0.08390267868978368
16.457142857142856,0.08776720494076676
16.57142857142857,0.09296534392788201
16.685714285714287,0.09920427146520001
16.8,0.10598179460434996
16.914285714285715,0.11269040628095855
17.02857142857143,0.11873814888086977
17.142857142857142,0.12365918761486829
17.257142857142856,0.12718753739780286
17.37142857142857,0.12927531819873297
17.485714285714284,0.1300539994775343
17.599999999999998,0.12975872069011912
17.714285714285715,0.12865096363237974
17.82857142857143,0.12697271522671807
17.942857142857143,0.12494404217293407
18.057142857142857,0.12278714968536902
18.17142857142857,0.12074222158467746
18.285714285714285,0.11904652040481371
18.4,0.11787500276519083
18.514285714285712,0.11726980637745106
18.628571428571426,0.11709741767010422
18.742857142857144,0.11705941550326945
18.857142857142858,0.11675625487379504
18.97142857142857,0.11578205780388592
19.085714285714285,0.1138226734466467
19.2,0.11073582316140701
19.314285714285713,0.10659989458502556
19.428571428571427,0.10172072005462814
19.54285714285714,0.09658741914299893
19.657142857142855,0.0917769084133626
19.771428571428572,0.08782360982478594
19.885714285714286,0.08508843152564383
20.0,0.08366806324745113
20.114285714285714,0.08337605780109528
20.228571428571428,0.08380401463725033
20.34285714285714,0.08444375370602203
20.457142857142856,0.0848303378900506
20.57142857142857,0.08465919581527952
20.685714285714287,0.08384126267535306
20.8,0.08248420835252049
20.914285714285715,0.08081565411555103
21.02857142857143,0.07908387644883746
21.142857142857142,0.07747479846146359
21.257142857142856,0.07607114861886757
21.37142857142857,0.07485825187781661
21.485714285714284,0.07376161906813859
21.599999999999998,0.07269220171898481
21.714285714285715,0.071577980417058
21.82857142857143,0.07037211577756193
21.942857142857143,0.0690418284851216
22.057142857142857,0.06755186747065614
22.17142857142857,0.06585755842718174
22.285714285714285,0.06391496397565194
22.4,0.061704284758137884
22.514285714285712,0.059254291370193016
22.628571428571426,0.056655171446597964
22.742857142857144,0.05405393619278397
22.857142857142858,0.05163479338392576
22.97142857142857,0.04959093722293292
23.085714285714285,0.04809299223048415
23.2,0.04725677377919456
23.314285714285713,0.04711351756135436
23.428571428571427,0.047589559227800574
23.54285714285714,0.048505314849561366
23.657142857142855,0.04960056718514099
23.771428571428572,0.05058395309453499
23.885714285714286,0.05119381174940471
24.0,0.05125166398093589
24.114285714285714,0.050692207073731496
24.228571428571428,0.0495633600549754
24.34285714285714,0.0480013037883777
24.457142857142856,0.04619297940686441
24.57142857142857,0.04433921105083506
24.685714285714283,0.04262644332893306
24.8,0.04120786672979212
24.914285714285715,0.04018988388897625
25.02857142857143,0.03962002307935525
25.142857142857142,0.03947681997312249
25.257142857142856,0.03966730480942864
25.37142857142857,0.04003934472910474
25.485714285714284,0.040412070394447996
25.599999999999998,0.04061943609057725
25.71428571428571,0.040554016408855476
25.82857142857143,0.040195226375833
25.942857142857143,0.039610624389781204
26.057142857142857,0.03892923254596495
26.17142857142857,0.03829704729243503
26.285714285714285,0.03783158107081929
26.4,0.03759121201323436
26.514285714285712,0.03756734881020147
26.628571428571426,0.03769749711225186
26.742857142857144,0.03789045262875574
26.857142857142858,0.03805365676222246
26.97142857142857,0.03811593234484398
27.085714285714285,0.038042744101974835
27.2,0.03784299614845634
27.314285714285713,0.03756626164004291
27.428571428571427,0.037289512461656606
27.54285714285714,0.0370947594898761
27.657142857142855,0.03704298048509116
27.771428571428572,0.03715266960961852
27.885714285714286,0.03739082112094478
28.0,0.037679914841227985
28.114285714285714,0.03791863118086766
28.228571428571428,0.03800944100488874
28.34285714285714,0.037884584374745185
28.457142857142856,0.03752317007590547
28.57142857142857,0.036955073873305565
28.685714285714283,0.03625098709351504
28.8,0.035501837012140935
28.914285714285715,0.034794219422840326
29.02857142857143,0.03419014297938899
29.142857142857142,0.03371784684157612
29.257142857142856,0.03337560988302569
29.37142857142857,0.033144469866301075
29.485714285714284,0.03300206043223908
29.599999999999998,0.03293062690354491
29.71428571428571,0.032916919404631234
29.82857142857143,0.03294680498304548
29.942857142857143,0.03299991854721034
30.057142857142857,0.03304869595520225
30.17142857142857,0.03306324455711379
30.285714285714285,0.03302065310536472
30.4,0.03291532250027754
30.514285714285712,0.03276568097094442
30.628571428571426,0.032612667587719184
30.74285714285714,0.032507721428433285
30.857142857142858,0.03249291298443479
30.97142857142857,0.032581121981340805
31.085714285714285,0.03274600496776399
31.2,0.03292753288397119
31.314285714285713,0.033050790504977445
31.428571428571427,0.03304865751599311
31.54285714285714,0.03287777789874986
31.657142857142855,0.03252257697414082
31.77142857142857,0.031989986517798
31.885714285714286,0.03130239157912611
32.0,0.030495139563713185
32.114285714285714,0.02961931113960152
32.22857142857143,0.028744876059998307
32.34285714285714,0.027957856245862524
32.457142857142856,0.02734846412697864
32.57142857142857,0.026992737619066294
32.68571428571428,0.026934099607617976
32.8,0.027171263652541185
32.91428571428571,0.02765570554706515
33.028571428571425,0.028298283833051392
33.14285714285714,0.02898289454374168
33.25714285714285,0.029585354615522523
33.371428571428574,0.029996011911726617
33.48571428571429,0.030142977229696766
33.6,0.030009787899984843
33.714285714285715,0.0296396105722486
33.82857142857143,0.02912077051141108
33.94285714285714,0.02855570407578868
34.05714285714286,0.028023934089303544
34.17142857142857,0.02755422456820987
34.285714285714285,0.027118311920019907
34.4,0.02664932746485557
34.51428571428571,0.02607683069848569
34.628571428571426,0.025362977121011182
34.74285714285714,0.02452434222488519
34.857142857142854,0.023630972175207925
34.97142857142857,0.022784498517947123
35.08571428571428,0.022085558770517585
35.199999999999996,0.021603685670923474
35.31428571428572,0.02135979488058582
35.42857142857143,0.021324911956207657
35.542857142857144,0.021432482749325674
35.65714285714286,0.02159809889705134
35.77142857142857,0.021740137021405675
35.885714285714286,0.021796385217163386
36.0,0.02173375655083048
36.114285714285714,0.021550073562688003
36.22857142857143,0.021268762918286124
36.34285714285714,0.020929075373363196
36.457142857142856,0.02057548545171388
36.57142857142857,0.02024947266659943
36.68571428571428,0.01998497490644046
36.8,0.019806528434132626
36.91428571428571,0.019727933498103388
37.028571428571425,0.019749973472588594
37.14285714285714,0.019857743993999415
37.25714285714285,0.020020020290056062
37.371428571428574,0.0201933050939719
37.48571428571429,0.02033125091642861
37.6,0.02039697055553183
37.714285714285715,0.020373285241049817
37.82857142857143,0.0202660256303128
37.94285714285714,0.020098527439031802
38.05714285714286,0.019899985093681738
38.17142857142857,0.019693712316912974
38.285714285714285,0.01949144373404617
38.4,0.01929635839490629
38.51428571428571,0.01911244628987196
38.628571428571426,0.018954099175889937
38.74285714285714,0.018849508754366834
38.857142857142854,0.01883467893943332
38.97142857142857,0.018939726612441934
39.08571428571428,0.019173069745233553
39.199999999999996,0.01951030059642252
39.31428571428571,0.01989281931531691
39.42857142857143,0.02023774627239348
39.542857142857144,0.020456723255233906
39.65714285714286,0.020478183482081955
39.77142857142857,0.02026637130407225
39.885714285714286,0.0198313074241763
40.0,0.0192268658938521
40.114285714285714,0.01853806989134471
40.22857142857143,0.01786194214527711
40.34285714285714,0.01728747489885035
40.457142857142856,0.016879444450019994
40.57142857142857,0.016668874960921606
40.68571428571428,0.01665104333431453
40.8,0.01679045182030079
40.91428571428571,0.017031082672108726
41.028571428571425,0.017309436227083898
41.14285714285714,0.017567550669258764
41.25714285714285,0.01776355543044962
41.371428571428574,0.017878091407847907
41.48571428571429,0.017915717398269276
41.6,0.01790104500355718
41.714285714285715,0.017870020650583796
41.82857142857143,0.017857765270055292
41.94285714285714,0.017885598572276257
42.05714285714286,0.017950824658706604
42.17142857142857,0.018022917291826583
42.285714285714285,0.01804848265272266
42.4,0.017964808750196386
42.51428571428571,0.017718606701310678
42.628571428571426,0.01728402685322465
42.74285714285714,0.01667362765353724
42.857142857142854,0.015938307992168547
42.97142857142857,0.015156425425182632
43.08571428571428,0.014416368860888942
43.199999999999996,0.013798713703966351
43.31428571428571,0.013363036428687006
43.42857142857143,0.013141481607537475
43.542857142857144,0.013138205783026232
43.65714285714286,0.013332474501876019
43.77142857142857,0.01368373078223623
43.885714285714286,0.014138289448862792
44.0,0.014637908034599509
44.114285714285714,0.01512959763698571
44.22857142857143,0.015574344550836476
44.34285714285714,0.01595152847118644
44.457142857142856,0.016256983045478964
44.57142857142857,0.016495569817488436
44.68571428571428,0.01667202886321619
44.8,0.016784686703624076
44.91428571428571,0.016824672181465914
45.028571428571425,0.016779928955055576
45.14285714285714,0.01664084973108476
45.25714285714285,0.016404327949949678
45.37142857142857,0.01607502809438603
45.48571428571429,0.01566485570711739
45.6,0.015192262069318636
45.714285714285715,0.014681948172439178
45.82857142857143,0.014164016146296334
45.94285714285714,0.013671170244880931
46.05714285714286,0.013233651714642013
46.17142857142857,0.012873319144713527
46.285714285714285,0.012599279659634628
46.4,0.012407007156804628
46.51428571428571,0.012281341779778214
46.628571428571426,0.012202175448404871
46.74285714285714,0.012150784554833649
46.857142857142854,0.012114789915066931
46.97142857142857,0.012090297439349411
47.08571428571428,0.012080658147628367
47.199999999999996,0.012092426543583812
47.31428571428571,0.012130297701258735
47.42857142857143,0.012193488339826322
47.542857142857144,0.012275541143528412
47.65714285714286,0.012367811337194126
47.77142857142857,0.012464793780201749
47.885714285714286,0.012568273885068613
48.0,0.0126878830777872
48.114285714285714,0.012837844619992274
48.22857142857143,0.01303258863016926
48.34285714285714,0.013286541682057873
48.457142857142856,0.013625199740801026
48.57142857142857,0.014115109052532538
48.68571428571428,0.014918403407839658
48.8,0.016370555034311934
48.91428571428571,0.019064965096455708
49.028571428571425,0.023904667059494178
49.14285714285714,0.03205744386236888
49.25714285714285,0.04474514132209144
49.37142857142857,0.06283586533329098
49.48571428571429,0.08630115073780059
49.6,0.11372368811569553
49.714285714285715,0.1421240392450389
49.82857142857143,0.16733221301852244
49.94285714285714,0.18492877546851227
50.05714285714286,0.19149236886012067
50.17142857142857,0.18567722204690165
50.285714285714285,0.16865698118684314
50.4,0.14373514423356856
50.51428571428571,0.11529966654870061
50.628571428571426,0.0875749049466602
50.74285714285714,0.06365258635343794
50.857142857142854,0.04508072958234472
50.97142857142857,0.03200225896251235
51.08571428571428,0.02362675539216229
51.199999999999996,0.018767544737059858
51.31428571428571,0.016253940860748106
51.42857142857142,0.015151352457012867
51.542857142857144,0.014817320995077122
51.65714285714286,0.014861278055219772
51.77142857142857,0.015070646509036108
51.885714285714286,0.015341250781401732
52.0,0.015626194849834935
52.114285714285714,0.01590315579285082
52.22857142857143,0.0161552799598589
52.34285714285714,0.01636160591818781
52.457142857142856,0.01649501743320886
52.57142857142857,0.01652651737499371
52.68571428571428,0.016433579546532164
52.8,0.016208759056275578
52.91428571428571,0.015864500549610396
53.028571428571425,0.015432031876705892
53.14285714285714,0.014955337488313234
53.25714285714285,0.014483306046788118
53.37142857142857,0.014062808439961699
53.48571428571429,0.013733315566376815
53.6,0.013521884783456216
53.714285714285715,0.013437673753057525
53.82857142857143,0.013467274363251765
53.94285714285714,0.013573997568027067
54.05714285714286,0.013703780091198164
54.17142857142857,0.01379750532719003
54.285714285714285,0.013806104702865245
54.4,0.013703147286496738
54.51428571428571,0.013490723386524624
54.628571428571426,0.013197397216633494
54.74285714285714,0.012869986005532174
54.857142857142854,0.012562473103101282
54.97142857142857,0.012325207018364523
55.08571428571428,0.012196361630132619
