Frequency,PSD
6.057142857142857,0.14697334179458726
6.171428571428571,0.14803809718716826
6.285714285714286,0.15022625538301246
6.3999999999999995,0.15337336914667615
6.514285714285714,0.15656646512108532
6.628571428571428,0.15800983046419187
6.742857142857143,0.15601286798631026
6.857142857142857,0.150541024078916
6.9714285714285715,0.143651667890476
7.085714285714285,0.13815041777078904
7.2,0.13578712608868196
7.314285714285714,0.13653172524378432
7.428571428571428,0.13902463719158362
7.542857142857143,0.14155858256552217
7.657142857142857,0.14330005041334626
7.771428571428571,0.14526232500577516
7.885714285714285,0.1499255256044069
8.0,0.15919652697523173
8.114285714285714,0.17234378337150716
8.228571428571428,0.18606956058910665
8.342857142857143,0.19694702572671513
8.457142857142857,0.20402413267822606
8.571428571428571,0.2092227794294639
8.685714285714285,0.21564723896275798
8.799999999999999,0.22602901076321305
8.914285714285715,0.24244252106580144
9.028571428571428,0.26611486648470234
9.142857142857142,0.2964768578833604
9.257142857142856,0.3306561725541741
9.371428571428572,0.36465562803227103
9.485714285714286,0.39551573246701166
9.6,0.4225412026192895
9.714285714285714,0.4461632583124412
9.828571428571427,0.46524556031002
9.942857142857143,0.4765484155712839
10.057142857142857,0.4791647603324557
10.17142857142857,0.48011439833727326
10.285714285714285,0.4929128390792926
10.4,0.5273047727516639
10.514285714285714,0.5794240262204023
10.628571428571428,0.6328296175448755
10.742857142857142,0.6694905640219738
10.857142857142858,0.6797569321062042
10.971428571428572,0.6637516860379669
11.085714285714285,0.6271612119826995
11.2,0.5775298552400739
11.314285714285713,0.5221503552132643
11.428571428571429,0.4661358027230828
11.542857142857143,0.41147963552072614
11.657142857142857,0.3584337669597134
11.77142857142857,0.3079969052793557
11.885714285714286,0.2628000775227639
12.0,0.2253299858176409
12.114285714285714,0.1955670557440066
12.228571428571428,0.171005420327532
12.342857142857142,0.14911796421304668
12.457142857142857,0.12934745496513989
12.571428571428571,0.11265226246349594
12.685714285714285,0.09979729551289597
12.799999999999999,0.09062229384429304
12.914285714285715,0.08472090841183325
13.028571428571428,0.08214432354398923
13.142857142857142,0.08299708856712332
13.257142857142856,0.08637799402875598
13.371428571428572,0.08999782732143971
13.485714285714286,0.09113158563265776
13.6,0.08821756186158479
13.714285714285714,0.08174249164712157
13.828571428571427,0.07367762396444058
13.942857142857143,0.06608485958459964
14.057142857142857,0.06017956974981313
14.17142857142857,0.05638183208378055
14.285714285714285,0.05473610948130769
14.4,0.05497228012517327
14.514285714285714,0.056294875668874526
14.628571428571428,0.05747169883023039
14.742857142857142,0.05742019373766223
14.857142857142856,0.05586311580456231
14.971428571428572,0.05349243512869966
15.085714285714285,0.05154915966459342
15.2,0.05121109032547443
15.314285714285713,0.05310975244857828
15.428571428571429,0.05694696181846805
15.542857142857143,0.061271830234787425
15.657142857142857,0.06388357601974032
15.77142857142857,0.06307455074275292
15.885714285714284,0.05889109769819122
16.0,0.05315206085838246
16.114285714285714,0.04809551335585186
16.228571428571428,0.04499617360519938
16.34285714285714,0.043991710332837546
16.457142857142856,0.04483706416340372
16.57142857142857,0.04738686430388797
16.685714285714287,0.05131963284595962
16.8,0.05575801309216102
16.914285714285715,0.059476687756618615
17.02857142857143,0.06154846689285683
17.142857142857142,0.0618273404657596
17.257142857142856,0.060955884004683374
17.37142857142857,0.05998579177008398
17.485714285714284,0.059857060338088575
17.599999999999998,0.060994700220988504
17.714285714285715,0.06319274472140954
17.82857142857143,0.0658016212978885
17.942857142857143,0.06814214931088673
18.057142857142857,0.06997119947551826
18.17142857142857,0.0716557172849455
18.285714285714285,0.07379324926163988
18.4,0.0765291177422099
18.514285714285712,0.07924108763693193
18.628571428571426,0.0809895592358424
18.742857142857144,0.08134200351018826
18.857142857142858,0.080749776821918
18.97142857142857,0.08016216539167115
19.085714285714285,0.08036267070703118
19.2,0.08155049029952013
19.314285714285713,0.08321067635620671
19.428571428571427,0.08427107536118612
19.54285714285714,0.08368904244093088
19.657142857142855,0.08119844530952111
19.771428571428572,0.0775345942694817
19.885714285714286,0.0739471555894185
20.0,0.07158204269279297
20.114285714285714,0.07117666324432571
20.228571428571428,0.07284435355190565
20.34285714285714,0.07577215745209138
20.457142857142856,0.078273878662354
20.57142857142857,0.07859861418306183
20.685714285714287,0.07606485756499139
20.8,0.07158828870656926
20.914285714285715,0.06714500599505126
21.02857142857143,0.06463566557579671
21.142857142857142,0.06502822795391318
21.257142857142856,0.06816991296544014
21.37142857142857,0.07295279498217466
21.485714285714284,0.07755788085151075
21.599999999999998,0.0800221353744286
21.714285714285715,0.07917081348573315
21.82857142857143,0.07517288445661294
21.942857142857143,0.06914555852342004
22.057142857142857,0.06236710881957084
22.17142857142857,0.05594632556227441
22.285714285714285,0.05087313487745207
22.4,0.047873017928797626
22.514285714285712,0.047047507380967926
22.628571428571426,0.047757919406567956
22.742857142857144,0.04892025565022712
22.857142857142858,0.04947320097527036
22.97142857142857,0.04878863948754507
23.085714285714285,0.046906420574273355
23.2,0.044464120044843056
23.314285714285713,0.042318671375711284
23.428571428571427,0.04110480670292051
23.54285714285714,0.04098326207841696
23.657142857142855,0.04163880346312357
23.771428571428572,0.04248700057343041
23.885714285714286,0.04298955565083999
24.0,0.04287157326828628
24.114285714285714,0.042094328221867774
24.228571428571428,0.04070120269120246
24.34285714285714,0.038770892630537485
24.457142857142856,0.03651489615552498
24.57142857142857,0.034332713526638664
24.685714285714283,0.03268233783187738
24.8,0.03185500457442702
24.914285714285715,0.03185117283400147
25.02857142857143,0.03242394377989711
25.142857142857142,0.033200069684988925
25.257142857142856,0.033798761684936854
25.37142857142857,0.03395328891967333
25.485714285714284,0.03362626624274019
25.599999999999998,0.03302141425796376
25.71428571428571,0.03243070240033684
25.82857142857143,0.032055068302114666
25.942857142857143,0.03199147678024766
26.057142857142857,0.03231609930563582
26.17142857142857,0.033023585759068094
26.285714285714285,0.033849193053810026
26.4,0.03427798769769212
26.514285714285712,0.033847872726734625
26.628571428571426,0.032494381315225786
26.742857142857144,0.030666588516862568
26.857142857142858,0.02913804930859066
26.97142857142857,0.028574418727706326
27.085714285714285,0.029102421400369977
27.2,0.030261190636351763
27.314285714285713,0.03141587086324739
27.428571428571427,0.03218971426108693
27.54285714285714,0.03247943683734542
27.657142857142855,0.032212457320570695
27.771428571428572,0.03133720133329936
27.885714285714286,0.03012231043555145
28.0,0.029277144778721023
28.114285714285714,0.0295193859125679
28.228571428571428,0.030905563272553088
28.34285714285714,0.0326402605169645
28.457142857142856,0.033677802980928796
28.57142857142857,0.0336244987257871
28.685714285714283,0.03307227599864326
28.8,0.03299885279413041
28.914285714285715,0.033816913589887296
29.02857142857143,0.035023371128013764
29.142857142857142,0.03573980152347312
29.257142857142856,0.03551303756360152
29.37142857142857,0.03458494571852039
29.485714285714284,0.03348022615778456
29.599999999999998,0.03243002496986436
29.71428571428571,0.031234162042747884
29.82857142857143,0.02965151545669978
29.942857142857143,0.027825370703524182
30.057142857142857,0.026245429578412652
30.17142857142857,0.025324963334960277
30.285714285714285,0.02510078723164009
30.4,0.025339109585949055
30.514285714285712,0.025816133137856984
30.628571428571426,0.026417029758821955
30.74285714285714,0.02704862157404314
30.857142857142858,0.027624112977719956
30.97142857142857,0.028167687682089902
31.085714285714285,0.02878534428738537
31.2,0.02941669221498829
31.314285714285713,0.02970579620100066
31.428571428571427,0.02927673141648942
31.54285714285714,0.028137424394254665
31.657142857142855,0.026700518250087017
31.77142857142857,0.025398591667950013
31.885714285714286,0.024381865193342983
32.0,0.02362359088190929
32.114285714285714,0.023207989154240896
32.22857142857143,0.023364172810204656
32.34285714285714,0.024163224158207163
32.457142857142856,0.025254507708339907
32.57142857142857,0.025995207934575038
32.68571428571428,0.025867511322645982
32.8,0.024798991394965074
32.91428571428571,0.0231756260365853
33.028571428571425,0.02160583629882175
33.14285714285714,0.02058962368391279
33.25714285714285,0.020274825442129153
33.371428571428574,0.02046716949785306
33.48571428571429,0.020876918181219777
33.6,0.021356992265849088
33.714285714285715,0.02192253091527867
33.82857142857143,0.022609853071779908
33.94285714285714,0.0233682254502834
34.05714285714286,0.024059945088310435
34.17142857142857,0.024509200446307455
34.285714285714285,0.0245337054467989
34.4,0.02396393181648682
34.51428571428571,0.02271950270840868
34.628571428571426,0.0209528927583447
34.74285714285714,0.019104749462942952
34.857142857142854,0.01771760310454426
34.97142857142857,0.0171116397406478
35.08571428571428,0.017208332789611806
35.199999999999996,0.01765828480857287
35.31428571428572,0.01815205240844561
35.42857142857143,0.018639063685461546
35.542857142857144,0.019270300356293853
35.65714285714286,0.0201448556676741
35.77142857142857,0.021130882659017088
35.885714285714286,0.02193256773827645
36.0,0.022309011023873337
36.114285714285714,0.0222472551635097
36.22857142857143,0.022004365843713576
36.34285714285714,0.022013906132322607
36.457142857142856,0.022639573776584297
36.57142857142857,0.02385924497613664
36.68571428571428,0.025143704423179463
36.8,0.025721378847907442
36.91428571428571,0.02506517452129674
37.028571428571425,0.023223056600778703
37.14285714285714,0.02077674802543711
37.25714285714285,0.018504598182021544
37.371428571428574,0.016969627779155717
37.48571428571429,0.01626198042561896
37.6,0.01605630142596432
37.714285714285715,0.015950835101520143
37.82857142857143,0.015807537025536025
37.94285714285714,0.01578689876976909
38.05714285714286,0.016074997844458025
38.17142857142857,0.016616486535078922
38.285714285714285,0.01713016377335719
38.4,0.017358417536007215
38.51428571428571,0.017267986452937336
38.628571428571426,0.017012534834726575
38.74285714285714,0.016753201991498507
38.857142857142854,0.01656277526554484
38.97142857142857,0.016463952523958558
39.08571428571428,0.016454963920128046
39.199999999999996,0.016461740683531123
39.31428571428571,0.016346249111347928
39.42857142857143,0.016042034350110902
39.542857142857144,0.01567592441791968
39.65714285714286,0.015520913787801878
39.77142857142857,0.01580969341141218
39.885714285714286,0.016554732307783624
40.0,0.017498878686496144
40.114285714285714,0.01824197919841231
40.22857142857143,0.018464879910792226
40.34285714285714,0.01807749012624389
40.457142857142856,0.01720078820305916
40.57142857142857,0.016067895817845335
40.68571428571428,0.014950462200616327
40.8,0.014098375747583216
40.91428571428571,0.01365319237788284
41.028571428571425,0.013585966365583844
41.14285714285714,0.013732224697039153
41.25714285714285,0.013901172355911028
41.371428571428574,0.013968158571077794
41.48571428571429,0.013897467190516422
41.6,0.013714363687397004
41.714285714285715,0.013475810228815851
41.82857142857143,0.01326411394495415
41.94285714285714,0.013174020486294305
42.05714285714286,0.013257736678826465
42.17142857142857,0.013469214658298756
42.285714285714285,0.013693623302379034
42.4,0.013854231003354082
42.51428571428571,0.013976205458643722
42.628571428571426,0.014132116726669924
42.74285714285714,0.01433552526244176
42.857142857142854,0.014498747664687396
42.97142857142857,0.014500377523083629
43.08571428571428,0.014307534494880958
43.199999999999996,0.014031579802038549
43.31428571428571,0.01383913741975575
43.42857142857143,0.01380110491531421
43.542857142857144,0.01384526575164591
43.65714285714286,0.013838616639782732
43.77142857142857,0.013668418782735028
43.885714285714286,0.01325652794837354
44.0,0.012583123035310003
44.114285714285714,0.011755211588127257
44.22857142857143,0.011020243482072162
44.34285714285714,0.010643648483995918
44.457142857142856,0.010727603030808167
44.57142857142857,0.01112985947689852
44.68571428571428,0.01155390157562517
44.8,0.011739646080898475
44.91428571428571,0.011624164764694047
45.028571428571425,0.011376496907070575
45.14285714285714,0.01128406133720892
45.25714285714285,0.011556434505897092
45.37142857142857,0.012181606416093605
45.48571428571429,0.012944384602684338
45.6,0.013588402038181704
45.714285714285715,0.013982107940258757
45.82857142857143,0.01414916978175738
45.94285714285714,0.014156228555391327
46.05714285714286,0.01400112624665675
46.17142857142857,0.013641795585644515
46.285714285714285,0.013124182789626324
46.4,0.012629345504529326
46.51428571428571,0.012362751524538081
46.628571428571426,0.012407188877727984
46.74285714285714,0.01267814183187695
46.857142857142854,0.012986334999213908
46.97142857142857,0.013147213860105377
47.08571428571428,0.013090558906734091
47.199999999999996,0.01290350899073746
47.31428571428571,0.012748057452977074
47.42857142857143,0.012708694537553196
47.542857142857144,0.012718074403841068
47.65714285714286,0.012641418503112031
47.77142857142857,0.012445411309549804
47.885714285714286,0.01228813739163193
48.0,0.0124199288775131
48.114285714285714,0.012958203728122314
48.22857142857143,0.013748700475102026
48.34285714285714,0.014467365881554797
48.457142857142856,0.014872632114604914
48.57142857142857,0.014962766748166777
48.68571428571428,0.014916459170080075
48.8,0.014923564447868902
48.91428571428571,0.01506361523757506
49.028571428571425,0.015277101328944172
49.14285714285714,0.01541830876562511
49.25714285714285,0.01541074240880071
49.37142857142857,0.015487271685002
49.48571428571429,0.016365815985208768
49.6,0.019139231598122648
49.714285714285715,0.02471776820727148
49.82857142857143,0.032895915133017935
49.94285714285714,0.04162900277901471
50.05714285714286,0.04750812273214697
50.17142857142857,0.04772025829201442
50.285714285714285,0.04208721948194112
50.4,0.033207907931297145
50.51428571428571,0.02453336801315894
50.628571428571426,0.018274986643136377
50.74285714285714,0.014805197044828525
50.857142857142854,0.013376631041677963
50.97142857142857,0.013019513879937413
51.08571428571428,0.012984575309969024
51.199999999999996,0.012836641505467431
51.31428571428571,0.012435452336799671
51.42857142857142,0.011850293478817702
51.542857142857144,0.01121374329568935
51.65714285714286,0.010611739283437976
51.77142857142857,0.01008918877501798
51.885714285714286,0.009709188478228775
52.0,0.009547905731692462
52.114285714285714,0.009623604001090275
52.22857142857143,0.0098718328671031
52.34285714285714,0.010212107989933288
52.457142857142856,0.010604804510456834
52.57142857142857,0.0110094239089092
52.68571428571428,0.011323819950441018
52.8,0.011438763757281672
52.91428571428571,0.011369845114124703
53.028571428571425,0.011284952800767967
53.14285714285714,0.011367331243997063
53.25714285714285,0.01166872182912157
53.37142857142857,0.012100943950943983
53.48571428571429,0.0125264425000975
53.6,0.01282969623919952
53.714285714285715,0.012944315720499897
53.82857142857143,0.0128727199655574
53.94285714285714,0.012689141747624451
54.05714285714286,0.012495501536587529
54.17142857142857,0.012354046052401233
54.285714285714285,0.012252251284952506
54.4,0.01212645861718702
54.51428571428571,0.011930496774912022
54.628571428571426,0.011700916240069015
54.74285714285714,0.011551723882536651
54.857142857142854,0.01157789057260581
54.97142857142857,0.01174803007658003
55.08571428571428,0.011906582941251121
