Frequency,PSD
6.057142857142857,0.16666727781508678
6.171428571428571,0.16557787842620875
6.285714285714286,0.16351452380792886
6.3999999999999995,0.16070743256991948
6.514285714285714,0.15749417135704394
6.628571428571428,0.15429765287546038
6.742857142857143,0.151585916533907
6.857142857142857,0.1498180582907866
6.9714285714285715,0.14938834185254635
7.085714285714285,0.1505840980899115
7.2,0.15357087479606238
7.314285714285714,0.15841108132086718
7.428571428571428,0.16511231740740276
7.542857142857143,0.17369192373961603
7.657142857142857,0.1842387927957736
7.771428571428571,0.19695516945295657
7.885714285714285,0.21217025655910915
8.0,0.230329722687929
8.114285714285714,0.2519732259338251
8.228571428571428,0.2777095555742305
8.342857142857143,0.3081862238405251
8.457142857142857,0.3440359760337487
8.571428571428571,0.38577933254590424
8.685714285714285,0.43367749511744624
8.799999999999999,0.4875589252474791
8.914285714285715,0.5466690971317341
9.028571428571428,0.6095979394816197
9.142857142857142,0.6743161138794572
9.257142857142856,0.738310333599717
9.371428571428572,0.7987728247805286
9.485714285714286,0.8527919102146729
9.6,0.8975138979978681
9.714285714285714,0.930284683013024
9.828571428571427,0.9488058772239462
9.942857142857143,0.9513351950863629
10.057142857142857,0.936925127514946
10.17142857142857,0.9056489594232304
10.285714285714285,0.8587369754753298
10.4,0.7985553370673577
10.514285714285714,0.728402053802414
10.628571428571428,0.6521486166538142
10.742857142857142,0.5737988716257426
10.857142857142858,0.49705436552152893
10.971428571428572,0.42496653043748694
11.085714285714285,0.3597284787555216
11.2,0.3026231702491836
11.314285714285713,0.2541094601027519
11.428571428571429,0.21400062016753996
11.542857142857143,0.18167733285262405
11.657142857142857,0.15628175053477977
11.77142857142857,0.13685861699733684
11.885714285714286,0.12243584632117707
12.0,0.11205998790591903
12.114285714285714,0.10481335183214764
12.228571428571428,0.09983651960816617
12.342857142857142,0.09636615201207842
12.457142857142857,0.09378127412955803
12.571428571428571,0.09163995789871279
12.685714285714285,0.08968781510731821
12.799999999999999,0.08782984629326294
12.914285714285715,0.08607255021169496
13.028571428571428,0.0844557783080469
13.142857142857142,0.08299723556126155
13.257142857142856,0.08166546140358727
13.371428571428572,0.08038384688791483
13.485714285714286,0.07905588853894786
13.6,0.07759621427082644
13.714285714285714,0.0759543415744547
13.828571428571427,0.07412556846473041
13.942857142857143,0.0721507747967962
14.057142857142857,0.07011033665985895
14.17142857142857,0.0681160824925999
14.285714285714285,0.06630145946384318
14.4,0.06480717796143812
14.514285714285714,0.06375988244481928
14.628571428571428,0.06324492684434144
14.742857142857142,0.06327912942845965
14.857142857142856,0.06379266925843749
14.971428571428572,0.06462895561380683
15.085714285714285,0.06556685513349542
15.2,0.06636239120654785
15.314285714285713,0.06679957478752387
15.428571428571429,0.06673549659998819
15.542857142857143,0.06612560747862446
15.657142857142857,0.06502168000602357
15.77142857142857,0.06354506518504083
15.885714285714284,0.061847213821776686
16.0,0.060073565027518865
16.114285714285714,0.05834368871547274
16.228571428571428,0.0567516295192285
16.34285714285714,0.05538036568188096
16.457142857142856,0.05431821681345862
16.57142857142857,0.0536655718741193
16.685714285714287,0.053526477646126246
16.8,0.05398771900583931
16.914285714285715,0.055093905571549084
17.02857142857143,0.05682835885319969
17.142857142857142,0.059106469933101105
17.257142857142856,0.06178287158848341
17.37142857142857,0.06466902587671174
17.485714285714284,0.06755563745386685
17.599999999999998,0.0702350282761132
17.714285714285715,0.07252105856667308
17.82857142857143,0.07426640316334146
17.942857142857143,0.07537747032709262
18.057142857142857,0.07582585140959988
18.17142857142857,0.07565330079910806
18.285714285714285,0.07496684881200444
18.4,0.07392285500124786
18.514285714285712,0.07270284388478433
18.628571428571426,0.07148746071021422
18.742857142857144,0.07043541008338197
18.857142857142858,0.06967108155727551
18.97142857142857,0.06927946652787478
19.085714285714285,0.06930319563258723
19.2,0.06973677570028565
19.314285714285713,0.07051761351885037
19.428571428571427,0.07151951013999414
19.54285714285714,0.07255784105105872
19.657142857142855,0.07341348539403102
19.771428571428572,0.07387477215832447
19.885714285714286,0.07378685313130293
20.0,0.07309135804941938
20.114285714285714,0.07184009842563926
20.228571428571428,0.07017541509069486
20.34285714285714,0.0682827685583036
20.457142857142856,0.06633230687304142
20.57142857142857,0.0644302528038922
20.685714285714287,0.06259638559172347
20.8,0.06077314458875157
20.914285714285715,0.05886001359230662
21.02857142857143,0.056758795415015675
21.142857142857142,0.05441372922229003
21.257142857142856,0.051834619169353224
21.37142857142857,0.04909848874874973
21.485714285714284,0.046332467481237
21.599999999999998,0.04368531163109968
21.714285714285715,0.04129638611853349
21.82857142857143,0.039269649592236985
21.942857142857143,0.03765739442601231
22.057142857142857,0.03645540506214696
22.17142857142857,0.03560865719846407
22.285714285714285,0.03502507324333178
22.4,0.03459415627788154
22.514285714285712,0.03420725671394908
22.628571428571426,0.03377642617013858
22.742857142857144,0.03324906460843677
22.857142857142858,0.03261590439982742
22.97142857142857,0.031910534645899345
23.085714285714285,0.031199899529808613
23.2,0.030567040367359043
23.314285714285713,0.03008945802813684
23.428571428571427,0.029818159909325723
23.54285714285714,0.02976291616886694
23.657142857142855,0.02988797747245353
23.771428571428572,0.030119681568067064
23.885714285714286,0.03036392647310045
24.0,0.030528695456076012
24.114285714285714,0.03054567299036582
24.228571428571428,0.03038571642856204
24.34285714285714,0.030065008102223737
24.457142857142856,0.029641218060864897
24.57142857142857,0.02920119219787864
24.685714285714283,0.028843140181765998
24.8,0.02865696388934193
24.914285714285715,0.02870636359061181
25.02857142857143,0.029015868184519965
25.142857142857142,0.029565094363113494
25.257142857142856,0.030291377124356506
25.37142857142857,0.031100402305786118
25.485714285714284,0.031882717461615445
25.599999999999998,0.03253243208216873
25.71428571428571,0.03296373289550907
25.82857142857143,0.0331215780599883
25.942857142857143,0.03298500508113955
26.057142857142857,0.03256404021357539
26.17142857142857,0.03189304868698191
26.285714285714285,0.031023706837309987
26.4,0.030019632245623724
26.514285714285712,0.028952831264881372
26.628571428571426,0.027900505912450836
26.742857142857144,0.026940149920979404
26.857142857142858,0.02614153943394364
26.97142857142857,0.025555985139271882
27.085714285714285,0.025205391801459913
27.2,0.02507523034919613
27.314285714285713,0.025115413439893625
27.428571428571427,0.025250827662176015
27.54285714285714,0.02539958141154862
27.657142857142855,0.025493564066018423
27.771428571428572,0.025494535158876494
27.885714285714286,0.02540056488214362
28.0,0.025241535319881013
28.114285714285714,0.02506665908232191
28.228571428571428,0.02492952684655042
28.34285714285714,0.024876003988167934
28.457142857142856,0.024937773709233772
28.57142857142857,0.02513100039111081
28.685714285714283,0.025457248236199756
28.8,0.025903590255697304
28.914285714285715,0.02644076048090966
29.02857142857143,0.02702104097562561
29.142857142857142,0.02757953167664437
29.257142857142856,0.02804207431921797
29.37142857142857,0.028340196713640763
29.485714285714284,0.028429365127957316
29.599999999999998,0.02830386096537175
29.71428571428571,0.02800165114304591
29.82857142857143,0.027596058921607422
29.942857142857143,0.02717634657801038
30.057142857142857,0.02682390912050588
30.17142857142857,0.026592437449325997
30.285714285714285,0.026498470439538506
30.4,0.02652431614947417
30.514285714285712,0.026630511702327102
30.628571428571426,0.026771835839802846
30.74285714285714,0.026910452550704858
30.857142857142858,0.027021900182101807
30.97142857142857,0.027093248663013464
31.085714285714285,0.027116276859879475
31.2,0.027080516158254603
31.314285714285713,0.02697062771750774
31.428571428571427,0.02677000964589582
31.54285714285714,0.026469009205447057
31.657142857142855,0.026073447121744146
31.77142857142857,0.025608778538261254
31.885714285714286,0.025117325190298023
32.0,0.024649415576441448
32.114285714285714,0.024252055933677154
32.22857142857143,0.023959473658592877
32.34285714285714,0.023788381656780388
32.457142857142856,0.023738235466551218
32.57142857142857,0.02379466190115421
32.68571428571428,0.023933635078336735
32.8,0.024124824118871655
32.91428571428571,0.024333997471205626
33.028571428571425,0.024525459256890952
33.14285714285714,0.024665645428424695
33.25714285714285,0.02472824117521429
33.371428571428574,0.024699948771723015
33.48571428571429,0.02458496339531023
33.6,0.024405875669862902
33.714285714285715,0.024199440006953003
33.82857142857143,0.024007339261298728
33.94285714285714,0.023864168264199757
34.05714285714286,0.023786445958608602
34.17142857142857,0.023766689996378185
34.285714285714285,0.023775100137521904
34.4,0.023768640388185422
34.51428571428571,0.023704415541871734
34.628571428571426,0.02355252707239227
34.74285714285714,0.023303907546365167
34.857142857142854,0.02297085072140296
34.97142857142857,0.022581003739191183
35.08571428571428,0.022167996501534958
35.199999999999996,0.02176258443358744
35.31428571428572,0.02138708527713883
35.42857142857143,0.02105386156405828
35.542857142857144,0.020766847546422725
35.65714285714286,0.020524428866200605
35.77142857142857,0.020322314691823
35.885714285714286,0.020155743877818228
36.0,0.020020794599229546
36.114285714285714,0.019914591181312183
36.22857142857143,0.0198342062278172
36.34285714285714,0.01977446879716176
36.457142857142856,0.01972568225741649
36.57142857142857,0.019672866892438547
36.68571428571428,0.019597907190081393
36.8,0.019484719386758078
36.91428571428571,0.019325817200804715
37.028571428571425,0.019127442678425994
37.14285714285714,0.018910549409399943
37.25714285714285,0.018706455179730786
37.371428571428574,0.01854820433283027
37.48571428571429,0.01846050771616263
37.6,0.018451719180909168
37.714285714285715,0.018510499449876365
37.82857142857143,0.01860812473888449
37.94285714285714,0.018705624832560785
38.05714285714286,0.018763703433567935
38.17142857142857,0.01875288870413991
38.285714285714285,0.018661441719993413
38.4,0.018499040386209788
38.51428571428571,0.018295133131470194
38.628571428571426,0.018092148305814158
38.74285714285714,0.017935264454679314
38.857142857142854,0.01786166611258432
38.97142857142857,0.0178924823583607
39.08571428571428,0.018029618959953222
39.199999999999996,0.018257799915607772
39.31428571428571,0.01855023590711632
39.42857142857143,0.018875373536479296
39.542857142857144,0.019202536854753184
39.65714285714286,0.01950555534218054
39.77142857142857,0.019764780744565585
39.885714285714286,0.019968418332100286
40.0,0.02011362413867361
40.114285714285714,0.02020684652502156
40.22857142857143,0.020262282511393025
40.34285714285714,0.020297721750966047
40.457142857142856,0.020328416363269562
40.57142857142857,0.02036115367918155
40.68571428571428,0.020391342053891863
40.8,0.020404990454203787
40.91428571428571,0.020385250677689176
41.028571428571425,0.02032084838610771
41.14285714285714,0.020212617449575258
41.25714285714285,0.020075191399314306
41.371428571428574,0.01993329321156717
41.48571428571429,0.019814689971226977
41.6,0.019743301047020007
41.714285714285715,0.01973543949607729
41.82857142857143,0.01980010946725765
41.94285714285714,0.01994190562194817
42.05714285714286,0.02016369992675744
42.17142857142857,0.020466645296878132
42.285714285714285,0.020846780348758143
42.4,0.021289654488619875
42.51428571428571,0.021765776062429996
42.628571428571426,0.022229697686367494
42.74285714285714,0.022624316469899992
42.857142857142854,0.022890133915409155
42.97142857142857,0.022977524908161268
43.08571428571428,0.02285898322379857
43.199999999999996,0.02253800527505998
43.31428571428571,0.022051752592797437
43.42857142857143,0.021465890962619815
43.542857142857144,0.02086197050201005
43.65714285714286,0.020320051235600392
43.77142857142857,0.019901265809608434
43.885714285714286,0.01963569936576565
44.0,0.019519679423849887
44.114285714285714,0.01952343012889164
44.22857142857143,0.019606162788793992
44.34285714285714,0.01973273680252102
44.457142857142856,0.01988545892142741
44.57142857142857,0.02006675453056991
44.68571428571428,0.020292377932589527
44.8,0.02057871862272827
44.91428571428571,0.020929889298809713
45.028571428571425,0.021329870525859038
45.14285714285714,0.021742487437079905
45.25714285714285,0.022118723127541474
45.37142857142857,0.022408283355518303
45.48571428571429,0.022571332895011068
45.6,0.022587003876032914
45.714285714285715,0.022457001412076995
45.82857142857143,0.022204470621492552
45.94285714285714,0.021869465229336894
46.05714285714286,0.021502567009555437
46.17142857142857,0.02115768924109533
46.285714285714285,0.02088445768183773
46.4,0.020720391567531398
46.51428571428571,0.020683609130740622
46.628571428571426,0.0207676055283504
46.74285714285714,0.02094007641250766
46.857142857142854,0.021147180638124274
46.97142857142857,0.02132303549320813
47.08571428571428,0.02140231638505385
47.199999999999996,0.02133262132051606
47.31428571428571,0.021083456035377965
47.42857142857143,0.02065017962989144
47.542857142857144,0.020053157843334724
47.65714285714286,0.01933367382214037
47.77142857142857,0.018548326024803236
47.885714285714286,0.017762969496850238
48.0,0.017046509501605085
48.114285714285714,0.01646473727216883
48.22857142857143,0.0160750586526192
48.34285714285714,0.015923922485035772
48.457142857142856,0.016049157456977388
48.57142857142857,0.016488491816644447
48.68571428571428,0.017292953718567417
48.8,0.018540107973144742
48.91428571428571,0.02033858766841291
49.028571428571425,0.02281430198941546
49.14285714285714,0.026072255165677554
49.25714285714285,0.030136976882095264
49.37142857142857,0.03488717190139315
49.48571428571429,0.04001098078126966
49.6,0.045010089132444614
49.714285714285715,0.04926890881849216
49.82857142857143,0.05218080138256267
49.94285714285714,0.05329644003055359
50.05714285714286,0.052443760424605704
50.17142857142857,0.049774771446057034
50.285714285714285,0.045721311149712056
50.4,0.040877417221500824
50.51428571428571,0.03585291609077414
50.628571428571426,0.031148632917217478
50.74285714285714,0.027087644336254244
50.857142857142854,0.02380972517602364
50.97142857142857,0.021311986207044657
51.08571428571428,0.019507644794030877
51.199999999999996,0.018278246170481644
51.31428571428571,0.017506627475133044
51.42857142857142,0.017090407965881405
51.542857142857144,0.01694312800213403
51.65714285714286,0.01699108095819539
51.77142857142857,0.017170670694652505
51.885714285714286,0.017427274891892656
52.0,0.017714590202663277
52.114285714285714,0.017993721129561924
52.22857142857143,0.018232592139670746
52.34285714285714,0.01840691226613203
52.457142857142856,0.018503070575881835
52.57142857142857,0.018521561808867236
52.68571428571428,0.018478284399044757
52.8,0.01840148405930379
52.91428571428571,0.018324196186683003
53.028571428571425,0.01827452659669549
53.14285714285714,0.018267449460157393
53.25714285714285,0.018301213441678142
53.37142857142857,0.018359388887972478
53.48571428571429,0.01841732066429839
53.6,0.01845042115982694
53.714285714285715,0.018441705503256384
53.82857142857143,0.018386799400631048
53.94285714285714,0.01829562931147591
54.05714285714286,0.018190704085417935
54.17142857142857,0.01810233827508078
54.285714285714285,0.01806159544318191
54.4,0.01809227221876892
54.51428571428571,0.018203754397241537
54.628571428571426,0.018386741643739594
54.74285714285714,0.018613405526830946
54.857142857142854,0.018842497602989304
54.97142857142857,0.019028510016455225
55.08571428571428,0.019132654017603595
