Frequency,PSD
6.0,0.45463391110602325
6.08,0.45501912644738635
6.16,0.4552798251035067
6.24,0.45459727346009515
6.32,0.4521795592207231
6.4,0.44761865001984724
6.48,0.4411398283158887
6.5600000000000005,0.4336428688351012
6.640000000000001,0.42650320937431546
6.72,0.42119054974744696
6.8,0.4188368720048668
6.88,0.4199109822862498
6.96,0.42411715747530115
7.04,0.4305468856872263
7.12,0.43801460529180425
7.2,0.4454435493361443
7.28,0.45216092441681
7.36,0.4580097450607591
7.44,0.4632622703950179
7.5200000000000005,0.46839313338084937
7.6000000000000005,0.47381143815099674
7.68,0.4796499730018499
7.76,0.4856751280675784
7.84,0.49133370452760106
7.92,0.49591187506846074
8.0,0.49875562296298753
8.08,0.4994895136453032
8.16,0.4981689558234478
8.24,0.4953134423728215
8.32,0.49180052884033737
8.4,0.4886493899817651
8.48,0.4867687517068079
8.56,0.48675803673033113
8.64,0.48881738890165227
8.72,0.4927590544385875
8.8,0.4980638642481321
8.88,0.5039314040686217
8.96,0.509328361713908
9.040000000000001,0.5130963953328139
9.120000000000001,0.5141780454927745
9.200000000000001,0.5119395857199661
9.28,0.5064637091174808
9.36,0.4986383572137249
9.44,0.48993473877232474
9.52,0.48192190996185924
9.6,0.4757144217035634
9.68,0.4715985565547682
9.76,0.46900066549682756
9.84,0.4667986647529255
9.92,0.4638271899363565
10.0,0.45936084453663695
10.08,0.4533941058116019
10.16,0.44663571400334456
10.24,0.440247234023416
10.32,0.4354396836934527
10.4,0.4330797476456557
10.48,0.43344420994669947
10.56,0.4362026495552467
10.64,0.44061941379030367
10.72,0.4458758895118895
10.8,0.4513615628569281
10.88,0.4567972106798987
10.96,0.46213688164605804
11.040000000000001,0.4673113959179972
11.120000000000001,0.47196596841878163
11.200000000000001,0.4753566024960399
11.28,0.4764908832511341
11.36,0.47446638163147814
11.44,0.4688460318622052
11.52,0.4598812311880067
11.6,0.44847031047767827
11.68,0.43588006994893963
11.76,0.4233788807700215
11.84,0.4119597697816675
11.92,0.4022566149324446
12.0,0.39462879766020165
12.08,0.3892935870966879
12.16,0.38638026986947516
12.24,0.38586150912879785
12.32,0.3874243988572665
12.4,0.3904016909618596
12.48,0.39385492366010955
12.56,0.39680712740632273
12.64,0.3985264986066448
12.72,0.3987252451719924
12.8,0.397580362572681
12.88,0.3955757303957511
12.96,0.39325100092969695
13.040000000000001,0.39097626698014526
13.120000000000001,0.38884250899427997
13.200000000000001,0.38669134052801135
13.280000000000001,0.38424213596514106
13.36,0.3812394421946414
13.44,0.377548371008823
13.52,0.37316303105893
13.6,0.3681445014740483
13.68,0.3625458636023774
13.76,0.3563892965727753
13.84,0.3497252307703768
13.92,0.342742319153802
14.0,0.3358476857906851
14.08,0.32963710594072926
14.16,0.3247329428779101
14.24,0.3215515872079799
14.32,0.32011712268114756
14.4,0.32002454175465067
14.48,0.32057928395501334
14.56,0.32104774974977346
14.64,0.32090226997180676
14.72,0.31995998149151494
14.8,0.318378844615141
14.88,0.3165399169606796
14.96,0.31487691281377306
15.040000000000001,0.3137087515145887
15.120000000000001,0.3131111869504236
15.200000000000001,0.3128523608331505
15.280000000000001,0.31241582224384384
15.36,0.3111264686922787
15.44,0.30836575057671545
15.52,0.3038183519651139
15.6,0.297658426278306
15.68,0.2905855887721038
15.76,0.28366789580026164
15.84,0.27802507906163837
15.92,0.2744571792556317
16.0,0.27315680138664994
16.080000000000002,0.27361835876737123
16.16,0.27478233484695863
16.240000000000002,0.27535971276778615
16.32,0.27421441194560875
16.4,0.27067018226727646
16.48,0.26465369725387805
16.56,0.2566594318160058
16.64,0.2475853639137825
16.72,0.23851488798355092
16.8,0.23050798940467246
16.88,0.22443324038070267
16.96,0.22084639171272652
17.04,0.21991525313909868
17.12,0.2214001707217099
17.2,0.22470751161732694
17.28,0.22902319065310153
17.36,0.23350194432927432
17.44,0.23745306873620975
17.52,0.24045200153217178
17.6,0.24233621392519625
17.68,0.2431029983864086
17.76,0.2427807535544822
17.84,0.2413573738160971
17.92,0.2388083096311558
18.0,0.23519811391670406
18.080000000000002,0.2307782980091896
18.16,0.22600487850299256
18.240000000000002,0.2214495073230568
18.32,0.21764357489300745
18.400000000000002,0.2149324801795408
18.48,0.21340646269771468
18.56,0.21292751631707374
18.64,0.213222098988202
18.72,0.21398541310934768
18.8,0.21495203460632534
18.88,0.21591601277465639
18.96,0.21671134927886204
19.04,0.21717866095664873
19.12,0.21714469445475026
19.2,0.21643280810468335
19.28,0.2149086175701388
19.36,0.21254812876136728
19.44,0.20949984762631418
19.52,0.2061050437706315
19.6,0.2028492689213131
19.68,0.200244663893028
19.76,0.19867694752150905
19.84,0.19827547607475984
19.92,0.1988630741670523
20.0,0.20001094583245466
20.080000000000002,0.20117712325888593
20.16,0.20186995169674793
20.240000000000002,0.20177173428419687
20.32,0.2007837073413565
20.400000000000002,0.19899380941063918
20.48,0.19659880680319194
20.56,0.19381921637202226
20.64,0.19083433502054475
20.72,0.18775016145683565
20.8,0.18460422902051135
20.88,0.1814055423190512
20.96,0.17819718778621316
21.04,0.17511335732930458
21.12,0.1723928130908431
21.2,0.17032167755060112
21.28,0.16911292126750876
21.36,0.16877233751096746
21.44,0.16902413615669554
21.52,0.16935346373416071
21.6,0.1691707544964431
21.68,0.16804018244086294
21.76,0.16587626379634074
21.84,0.16302030758253783
21.92,0.16015760003147395
22.0,0.15810124784567905
22.080000000000002,0.15751930371475417
22.16,0.1586998710009202
22.240000000000002,0.16143338126266976
22.32,0.16505259830112162
22.400000000000002,0.1686219761408897
22.48,0.17122027167606413
22.56,0.1722258339821164
22.64,0.17150635120730398
22.72,0.16944345307773184
22.8,0.16678282158736793
22.88,0.16436935240203915
22.96,0.16287186311257512
23.04,0.1625995208573691
23.12,0.16346412679515626
23.2,0.1650752125991511
23.28,0.1669037685241468
23.36,0.16843804940014306
23.44,0.16928022341085439
23.52,0.16917526383015175
23.6,0.1679983827799218
23.68,0.16573862160981567
23.76,0.16250302616363665
23.84,0.1585393501682213
23.92,0.154251540286742
24.0,0.1501748460982507
24.080000000000002,0.14689155012339647
24.16,0.1448984712147521
24.240000000000002,0.14446864308256693
24.32,0.14556398417630192
24.400000000000002,0.14784204503770246
24.48,0.1507613603278773
24.560000000000002,0.15374500928363136
24.64,0.15633508197064572
24.72,0.15827763424182412
24.8,0.1595149965186098
24.88,0.1601085273557616
24.96,0.16014357975716068
25.04,0.15966489156162497
25.12,0.15866129077611946
25.2,0.15708606368749234
25.28,0.15488557457546198
25.36,0.15201902993945896
25.44,0.1484722877428237
25.52,0.14427770845775342
25.6,0.13954198006688973
25.68,0.1344659170882499
25.76,0.1293340968018349
25.84,0.12446672086664486
25.92,0.12015050060437657
26.0,0.11657913826973859
26.080000000000002,0.11382580986620297
26.16,0.11184787744756722
26.240000000000002,0.11050725617820044
26.32,0.10959162525398866
26.400000000000002,0.10883768155782517
26.48,0.10797055732694028
26.560000000000002,0.10676862899310398
26.64,0.10514120345644107
26.72,0.10318450561913414
26.8,0.10117821945162653
26.88,0.09950737788120508
26.96,0.09853143240523804
27.04,0.09845207906988071
27.12,0.09923594278267953
27.2,0.10062442928951075
27.28,0.10222367346430743
27.36,0.10363295250085426
27.44,0.10455692879177869
27.52,0.10486047593596991
27.6,0.1045559964937772
27.68,0.10374514014650406
27.76,0.10255355364826504
27.84,0.1010918551748586
27.92,0.099454024249364
28.0,0.09773999974376905
28.080000000000002,0.09607643262726588
28.16,0.09461389475177891
28.240000000000002,0.09349547655354742
28.32,0.09280960663774708
28.400000000000002,0.09254941077987842
28.48,0.09259863011836575
28.560000000000002,0.09275297778411065
28.64,0.09277170680435987
28.72,0.09244267235304057
28.8,0.09163927260470406
28.88,0.09035131858440641
28.96,0.08868311155592416
29.04,0.08682587444377118
29.12,0.08502074706916218
29.2,0.08352729986801544
29.28,0.08260191699406103
29.36,0.08247816668324376
29.44,0.0833366868917349
29.52,0.08525918870049333
29.6,0.08817578358062275
29.68,0.09182772554355087
29.76,0.0957705580928975
29.84,0.09943281446394528
29.92,0.10222629975212386
30.0,0.10368306628029954
30.080000000000002,0.10357986562450669
30.16,0.1020094638004037
30.240000000000002,0.09937158885599694
30.32,0.0962805658303051
30.400000000000002,0.0934133300672643
30.48,0.09134071774004757
30.560000000000002,0.09038994177847844
30.64,0.0905758577812814
30.72,0.0916173478092455
30.8,0.09303029737874487
30.88,0.0942677521161078
30.96,0.09486644868561944
31.04,0.09455949964277321
31.12,0.09332682125018163
31.2,0.09137432723549171
31.28,0.089054300141748
31.36,0.08675615665944285
31.44,0.08480342927817455
31.52,0.08338674407679227
31.6,0.08254632686606188
31.68,0.08219817233548089
31.76,0.08218410073859422
31.84,0.0823231478885777
31.92,0.08244944563553716
32.0,0.08243354168995867
32.08,0.0821921938598303
32.160000000000004,0.08169224150443229
32.24,0.08094965401298218
32.32,0.08002132163701661
32.4,0.07898872965291868
32.480000000000004,0.07793796539122108
32.56,0.07694409090459184
32.64,0.07606543520073292
32.72,0.07534587123653905
32.8,0.07481657159397025
32.88,0.07448900246702408
32.96,0.07433883015759774
33.04,0.0742905842189506
33.12,0.07421753164536281
33.2,0.0739657857506555
33.28,0.07339852472652854
33.36,0.07244319619758995
33.44,0.07112008929537474
33.52,0.06953808439944398
33.6,0.06785896694949922
33.68,0.06624671227658938
33.76,0.06482427962018764
33.84,0.06365472329140062
33.92,0.06274980449555405
34.0,0.06209589561536179
34.08,0.061680864316153994
34.160000000000004,0.06150867509823804
34.24,0.061597058962475096
34.32,0.06196209167638467
34.4,0.06259814349463573
34.480000000000004,0.06346213903466429
34.56,0.06446898421894881
34.64,0.06550144997054147
34.72,0.06643285263550794
34.800000000000004,0.06715531439633439
34.88,0.06760287357571021
34.96,0.06776030277567496
35.04,0.06765546500366641
35.12,0.06734146141853255
35.2,0.06687903477572131
35.28,0.06632689013415705
35.36,0.06574030105624341
35.44,0.0651723518087002
35.52,0.06467169085985361
35.6,0.0642753094266871
35.68,0.06400035588511262
35.76,0.06384099479034144
35.84,0.0637735737976223
35.92,0.06376810529524499
36.0,0.06379988442381593
36.08,0.06385441828010133
36.160000000000004,0.06392202457482628
36.24,0.06398398892913068
36.32,0.06399761882885023
36.4,0.06389017408263745
36.480000000000004,0.06356932741022955
36.56,0.06295035063352493
36.64,0.061990625608829876
36.72,0.06071575296028128
36.800000000000004,0.05922316665979977
36.88,0.05765910633732582
36.96,0.05617798918253612
37.04,0.05490206949415006
37.12,0.05389862965934905
37.2,0.05318243126807256
37.28,0.05273841591955326
37.36,0.05255045661179081
37.44,0.05262034551379296
37.52,0.052967079146232054
37.6,0.05360676423691735
37.68,0.05452372696821042
37.76,0.055649226602319996
37.84,0.056862285094292
37.92,0.05801727204292142
38.0,0.05898911319680769
38.08,0.05971657724447173
38.160000000000004,0.060223301780336136
38.24,0.060605909387645554
38.32,0.060993362133912266
38.4,0.06149370692065581
38.480000000000004,0.06214833687759448
38.56,0.06290968109134792
38.64,0.0636491545908836
38.72,0.06419194463011627
38.800000000000004,0.06436645531883986
38.88,0.06405132981060292
38.96,0.06320430807565573
39.04,0.06186547200862426
39.12,0.06013939607720738
39.2,0.05816955231840456
39.28,0.056118119377559256
39.36,0.05415530966635284
39.44,0.05245157572821003
39.52,0.051162426343152684
39.6,0.05040236426839337
39.68,0.05021640044092707
39.76,0.05056499230647711
39.84,0.05133464035112863
39.92,0.05237346777427458
40.0,0.053537211788401345
40.08,0.054724912950785534
40.160000000000004,0.05588871346648917
40.24,0.057015387315471476
40.32,0.05809130502144871
40.4,0.05907040139337779
40.480000000000004,0.05986271624902936
40.56,0.06035041750957322
40.64,0.06042432618913224
40.72,0.060023939717790124
40.800000000000004,0.05916282594480098
40.88,0.057929077455504276
40.96,0.056462336986093105
41.04,0.05491808763847048
41.12,0.0534323782642011
41.2,0.05209653691872011
41.28,0.0509455843722264
41.36,0.049959736774460195
41.44,0.04907673013404358
41.52,0.04821236489381399
41.6,0.04728579147352873
41.68,0.04624416016731924
41.76,0.04507969576859691
41.84,0.04383311778829223
41.92,0.042581671270873096
42.0,0.04141660948700783
42.08,0.04042035385863527
42.160000000000004,0.03965397978701703
42.24,0.03915969868105596
42.32,0.03897324183179087
42.4,0.03913335611746702
42.480000000000004,0.03967568779509281
42.56,0.04060763719797972
42.64,0.04187470124377009
42.72,0.043338748673174894
42.800000000000004,0.044787187021385975
42.88,0.0459781180059748
42.96,0.04670731645892674
43.04,0.046869376855353216
43.12,0.04648612380552173
43.2,0.045690632002946555
43.28,0.044676575587208625
43.36,0.04363814790562214
43.44,0.0427270584052982
43.52,0.04204017625723921
43.6,0.04163249782667325
43.68,0.04153663113564298
43.76,0.04176956722394984
43.84,0.042319571371835785
43.92,0.04312234277526847
44.0,0.0440456162339389
44.08,0.044898950815496254
44.160000000000004,0.04547238256817697
44.24,0.04559195744861939
44.32,0.045170715805889085
44.4,0.0442349191627914
44.480000000000004,0.04291567695008048
44.56,0.04141014161841437
44.64,0.03992788615819576
44.72,0.03864252217658741
44.800000000000004,0.03766459270173272
44.88,0.03704114546447032
44.96,0.0367749065766139
45.04,0.036847562334753885
45.12,0.03723165562166021
45.2,0.0378842479729906
45.28,0.038728344702017234
45.36,0.03963799845300726
45.44,0.04044386931486199
45.52,0.040966254273931774
45.6,0.041066683936093196
45.68,0.04069590415928182
45.76,0.039913839282990624
45.84,0.03886872955654043
45.92,0.03774260302112458
46.0,0.03668748156371391
46.08,0.03578112878927579
46.160000000000004,0.03502014519484313
46.24,0.03434852235958512
46.32,0.03370297738142951
46.4,0.033051438738824275
46.480000000000004,0.032408916958707325
46.56,0.03182909842881034
46.64,0.031381488183049686
46.72,0.03112744794312868
46.800000000000004,0.031104521165767948
46.88,0.031321428954593424
46.96,0.03176066256486619
47.04,0.03238388458593595
47.12,0.033136909643120244
47.2,0.03395394378271612
47.28,0.034762969381207785
47.36,0.03549433645318513
47.44,0.03609262918657352
47.52,0.03652892289205269
47.6,0.03680862885087274
47.68,0.036970764021222124
47.76,0.03707753043737097
47.84,0.037196746424961874
47.92,0.03738193468388974
48.0,0.037655142517373154
48.08,0.03799680368735272
48.160000000000004,0.03834616242154314
48.24,0.03861457094187069
48.32,0.03871093513993344
48.4,0.038573401573450294
48.480000000000004,0.03819636595265235
48.56,0.03764091298230784
48.64,0.037022123658301334
48.72,0.036476466177951944
48.800000000000004,0.03612147133471495
48.88,0.036022963498207036
48.96,0.03618081868747616
49.04,0.03653551004833522
49.120000000000005,0.03698957913773975
49.2,0.03743432545198052
49.28,0.03777300359852429
49.36,0.03793571472694567
49.44,0.0378854264660251
49.52,0.03761746786317303
49.6,0.03715586816771219
49.68,0.036549182721056166
49.76,0.03586652562982763
49.84,0.035192403160022215
49.92,0.03461790814064891
50.0,0.0342268043080126
50.08,0.03407774998231506
50.160000000000004,0.034186921267089505
50.24,0.034516824619788986
50.32,0.03497619741994243
50.4,0.035432940055703244
50.480000000000004,0.035738234849973655
50.56,0.035756723972757115
50.64,0.035395765918599276
50.72,0.03462674112571801
50.800000000000004,0.033493029705398386
50.88,0.03210222781336919
50.96,0.03060385384621089
51.04,0.029157560612989464
51.120000000000005,0.0278998168982814
51.2,0.026918024143767975
51.28,0.02623920009287218
51.36,0.02583579817622319
51.44,0.025645436012036872
51.52,0.025596654227703578
51.6,0.025631357345222202
51.68,0.02571688267187627
51.76,0.025845514983097884
51.84,0.026024412930872893
51.92,0.02626211589812825
52.0,0.02655798762274318
52.08,0.026898584409208545
52.160000000000004,0.02726150533598791
52.24,0.02762433144893907
52.32,0.027974616515432413
52.4,0.02831661878107443
52.480000000000004,0.02867137002626992
52.56,0.029068706638366193
52.64,0.029532910945002048
52.72,0.03006687691270186
52.800000000000004,0.030641675145159586
52.88,0.03119743258487863
52.96,0.03165716019793843
53.04,0.03194917424194965
53.120000000000005,0.03202915570333909
53.2,0.03189245618811811
53.28,0.03157157205697787
53.36,0.03112058651343506
53.44,0.030594125646628733
53.52,0.030030071800756886
53.6,0.029442502675899915
53.68,0.028826109385117857
53.76,0.028168569643034935
53.84,0.02746492459125266
53.92,0.02672819198071717
54.0,0.025992457154514915
54.08,0.02530757790619638
54.160000000000004,0.02472761253437153
54.24,0.024297242739718908
54.32,0.02404092135384711
54.4,0.02395797029546661
54.480000000000004,0.024024243403696292
54.56,0.024198751951390558
54.64,0.02443279351325146
54.72,0.02467935676600152
54.800000000000004,0.02490094585501982
54.88,0.025074067507200905
54.96,0.025189060968498107
55.04,0.02524547892770554
