Frequency,PSD
6.057142857142857,0.43414521953000024
6.171428571428571,0.44114337294146544
6.285714285714286,0.4552566024705071
6.3999999999999995,0.47602527216858814
6.514285714285714,0.5014809482013238
6.628571428571428,0.5277811221135729
6.742857142857143,0.5501024554445816
6.857142857142857,0.5647289761307344
6.9714285714285715,0.5713806211130533
7.085714285714285,0.5745565860833266
7.2,0.5831350039484537
7.314285714285714,0.6081468835839975
7.428571428571428,0.6592318236828871
7.542857142857143,0.7410037195169112
7.657142857142857,0.8512728392476244
7.771428571428571,0.9827931579400695
7.885714285714285,1.1282050777803572
8.0,1.2851695769903146
8.114285714285714,1.4577175384274657
8.228571428571428,1.6519161656420025
8.342857142857143,1.8678153927662458
8.457142857142857,2.0924704079607337
8.571428571428571,2.2987209470235683
8.685714285714285,2.451526767688147
8.799999999999999,2.5196484295681114
8.914285714285715,2.48731235238072
9.028571428571428,2.3599687879591964
9.142857142857142,2.161175464851107
9.257142857142856,1.92273316665067
9.371428571428572,1.6739935371778332
9.485714285714286,1.4357349694640853
9.6,1.2198198631749375
9.714285714285714,1.0319518977077227
9.828571428571427,0.8742970520317105
9.942857142857143,0.7467575197976352
10.057142857142857,0.6474557219220036
10.17142857142857,0.5731058699698262
10.285714285714285,0.5193132095264135
10.4,0.48068848329535624
10.514285714285714,0.45105414932554905
10.628571428571428,0.42420387762219336
10.742857142857142,0.39524479901141285
10.857142857142858,0.36187369915711354
10.971428571428572,0.3247211267503219
11.085714285714285,0.28643921680423906
11.2,0.2500728686422986
11.314285714285713,0.21768587655392857
11.428571428571429,0.18988624436639912
11.542857142857143,0.16618619620314734
11.657142857142857,0.14567787258798257
11.77142857142857,0.12756741897551332
11.885714285714286,0.11143129331075943
12.0,0.09725985306302354
12.114285714285714,0.08534483538189899
12.228571428571428,0.07603071081316555
12.342857142857142,0.06941693576736307
12.457142857142857,0.06518343056461753
12.571428571428571,0.06266765513057362
12.685714285714285,0.06114966543000347
12.799999999999999,0.06014865418783223
12.914285714285715,0.05953105392954256
13.028571428571428,0.05937501312404957
13.142857142857142,0.05971305729904976
13.257142857142856,0.06035000914855765
13.371428571428572,0.06087562005619157
13.485714285714286,0.06083331262473726
13.6,0.05990333682012735
13.714285714285714,0.05798716951060885
13.828571428571427,0.055191265946372206
13.942857142857143,0.051786577559459555
14.057142857142857,0.048201838534167485
14.17142857142857,0.045032072501980144
14.285714285714285,0.042992453157688584
14.4,0.042767145485508855
14.514285714285714,0.04477713479457174
14.628571428571428,0.048969313322984515
14.742857142857142,0.05475412362754241
14.857142857142856,0.06115611223846115
14.971428571428572,0.06711690150500084
15.085714285714285,0.0717952061820003
15.2,0.07472705356088702
15.314285714285713,0.0758227374625388
15.428571428571429,0.07527488431066703
15.542857142857143,0.07345496909993249
15.657142857142857,0.07082052120733334
15.77142857142857,0.06783016768341388
15.885714285714284,0.06488473545116459
16.0,0.062316521939233704
16.114285714285714,0.060405212533150954
16.228571428571428,0.0593681918470805
16.34285714285714,0.05931439148410943
16.457142857142856,0.06021750336622598
16.57142857142857,0.0619560462506362
16.685714285714287,0.06437893286636773
16.8,0.06730191496014189
16.914285714285715,0.07041167894393599
17.02857142857143,0.07318475344150771
17.142857142857142,0.07496361875231675
17.257142857142856,0.07521080490005612
17.37142857142857,0.07379149937383762
17.485714285714284,0.07108165588852802
17.599999999999998,0.06781383461575041
17.714285714285715,0.06475233757212277
17.82857142857143,0.0623866359156484
17.942857142857143,0.06079381631898921
18.057142857142857,0.059703682415271485
18.17142857142857,0.058694043778969696
18.285714285714285,0.0574021878382246
18.4,0.055664140666047496
18.514285714285712,0.05355188788882973
18.628571428571426,0.051325209239129074
18.742857142857144,0.04932843698504417
18.857142857142858,0.04786146082399325
18.97142857142857,0.04706403255069245
19.085714285714285,0.04686424654414465
19.2,0.04702301391093966
19.314285714285713,0.04725053708454825
19.428571428571427,0.04732069095716811
19.54285714285714,0.04711372251570045
19.657142857142855,0.04657774192663182
19.771428571428572,0.045664716031989364
19.885714285714286,0.04431309999420814
20.0,0.04250617666608684
20.114285714285714,0.040369372625466755
20.228571428571428,0.03823048857432812
20.34285714285714,0.03657845237246281
20.457142857142856,0.03590980894809846
20.57142857142857,0.03651931538154069
20.685714285714287,0.03833721689746319
20.8,0.04090862532969783
20.914285714285715,0.043539628540960336
21.02857142857143,0.045537360890216406
21.142857142857142,0.04641949716360442
21.257142857142856,0.04600587322745685
21.37142857142857,0.04439384445988949
21.485714285714284,0.04187665073276601
21.599999999999998,0.03885314419419823
21.714285714285715,0.035739124274217444
21.82857142857143,0.0328808149392343
21.942857142857143,0.030490342043406907
22.057142857142857,0.028631066867307854
22.17142857142857,0.027257351971175337
22.285714285714285,0.026280270184250065
22.4,0.02561872300625733
22.514285714285712,0.02521294092392333
22.628571428571426,0.025008918645832663
22.742857142857144,0.02494276047988913
22.857142857142858,0.02494619137064644
22.97142857142857,0.024966794533872082
23.085714285714285,0.024978972406934474
23.2,0.024974211249620768
23.314285714285713,0.024945644190571024
23.428571428571427,0.024887962129403418
23.54285714285714,0.024811083766411966
23.657142857142855,0.024743705516658665
23.771428571428572,0.024710832336101586
23.885714285714286,0.024700840821513984
24.0,0.024656471296242707
24.114285714285714,0.024506838309388074
24.228571428571428,0.024219711597581815
24.34285714285714,0.023832508381359432
24.457142857142856,0.023436590048099636
24.57142857142857,0.023126565614226477
24.685714285714283,0.02295155121840698
24.8,0.022900737406141645
24.914285714285715,0.02292936010484816
25.02857142857143,0.023003998164740906
25.142857142857142,0.023133874749426252
25.257142857142856,0.023363191351709188
25.37142857142857,0.023725306853041615
25.485714285714284,0.02418905868387947
25.599999999999998,0.02463883701520602
25.71428571428571,0.0249100643680853
25.82857142857143,0.024863163305280545
25.942857142857143,0.024452032476860175
26.057142857142857,0.023746949753677096
26.17142857142857,0.022900493603321206
26.285714285714285,0.022077422892613805
26.4,0.021386534219421438
26.514285714285712,0.020846435744262516
26.628571428571426,0.020394709711516506
26.742857142857144,0.0199284797549135
26.857142857142858,0.019356191736838505
26.97142857142857,0.018641628348998882
27.085714285714285,0.017823409704963898
27.2,0.01699967861118992
27.314285714285713,0.016285029000272816
27.428571428571427,0.015765356688085645
27.54285714285714,0.015475982121823263
27.657142857142855,0.015406798903307064
27.771428571428572,0.01551807263328553
27.885714285714286,0.01575137170679568
28.0,0.016034896667954962
28.114285714285714,0.016291034198964906
28.228571428571428,0.016450047108041092
28.34285714285714,0.016467477214446306
28.457142857142856,0.016341555038206845
28.57142857142857,0.016126721722986098
28.685714285714283,0.015935513095152114
28.8,0.015918080321670042
28.914285714285715,0.01621510906285426
29.02857142857143,0.016896500690529462
29.142857142857142,0.017914286215643574
29.257142857142856,0.019099738590981397
29.37142857142857,0.02021490006306761
29.485714285714284,0.021036194305679174
29.599999999999998,0.021425058881570827
29.71428571428571,0.021349231289961433
29.82857142857143,0.020855861174360682
29.942857142857143,0.020031860284355222
30.057142857142857,0.01898544701824071
30.17142857142857,0.01784948681012547
30.285714285714285,0.016779220956711464
30.4,0.015923189233913823
30.514285714285712,0.015377170584182536
30.628571428571426,0.015153666159538046
30.74285714285714,0.015192160023565455
30.857142857142858,0.015404938323362625
30.97142857142857,0.015725561486567126
31.085714285714285,0.016125657610211782
31.2,0.016592544140404137
31.314285714285713,0.017092533389453823
31.428571428571427,0.017554536602301808
31.54285714285714,0.017889101736323645
31.657142857142855,0.018029231076744652
31.77142857142857,0.017965235199730922
31.885714285714286,0.01775257816133941
32.0,0.0174892733221351
32.114285714285714,0.017276240535435125
32.22857142857143,0.017182005428101027
32.34285714285714,0.01722741620976935
32.457142857142856,0.01739060011927459
32.57142857142857,0.017621046947071884
32.68571428571428,0.017854189529804998
32.8,0.01802693075634603
32.91428571428571,0.018095895039789756
33.028571428571425,0.018052252673343455
33.14285714285714,0.017922406583943805
33.25714285714285,0.01775132495019982
33.371428571428574,0.01757837378941456
33.48571428571429,0.017421225598268125
33.6,0.017276697148528003
33.714285714285715,0.017134225681372663
33.82857142857143,0.01698847143373073
33.94285714285714,0.01683925157629133
34.05714285714286,0.016678825306593828
34.17142857142857,0.01647932046108944
34.285714285714285,0.016195577293375778
34.4,0.0157878236452968
34.51428571428571,0.015253146942924251
34.628571428571426,0.014646764771387915
34.74285714285714,0.014078081456529922
34.857142857142854,0.013678272930820667
34.97142857142857,0.013549601805675895
35.08571428571428,0.013717427270412
35.199999999999996,0.014109202299427649
35.31428571428572,0.014575738179389251
35.42857142857143,0.01494927649101025
35.542857142857144,0.015110773679880715
35.65714285714286,0.015030569300018429
35.77142857142857,0.01476080869771447
35.885714285714286,0.01438751473103786
36.0,0.013975117460788136
36.114285714285714,0.013538353767009736
36.22857142857143,0.013054645221370776
36.34285714285714,0.01250201531661576
36.457142857142856,0.011894199157809003
36.57142857142857,0.01129185063966149
36.68571428571428,0.010785850848192972
36.8,0.010462432135700432
36.91428571428571,0.010366431062620442
37.028571428571425,0.010480588463193396
37.14285714285714,0.010733842858841392
37.25714285714285,0.011036553878767277
37.371428571428574,0.011321657797021703
37.48571428571429,0.011564721760504042
37.6,0.011772560780327498
37.714285714285715,0.01195626698309148
37.82857142857143,0.012114491605951933
37.94285714285714,0.012237617758489338
38.05714285714286,0.012321593786714382
38.17142857142857,0.012374614656298773
38.285714285714285,0.01241122509992469
38.4,0.012439663999526155
38.51428571428571,0.01244975908212137
38.628571428571426,0.012406835847269107
38.74285714285714,0.012258191187732408
38.857142857142854,0.011956976457513752
38.97142857142857,0.011496825899794444
39.08571428571428,0.010936153396133035
39.199999999999996,0.010390279327846575
39.31428571428571,0.009988987082128675
39.42857142857143,0.009822615808823465
39.542857142857144,0.009908690722600191
39.65714285714286,0.010194970090571435
39.77142857142857,0.01058858192158342
39.885714285714286,0.010987883441184263
40.0,0.011302158153839727
40.114285714285714,0.011461268679805825
40.22857142857143,0.011424552391789236
40.34285714285714,0.011191138484542989
40.457142857142856,0.01080391930833381
40.57142857142857,0.010339263911405123
40.68571428571428,0.009884464425218432
40.8,0.00951394604324364
40.91428571428571,0.00927432025166722
41.028571428571425,0.009179882065225207
41.14285714285714,0.009214163380001804
41.25714285714285,0.009334723755394412
41.371428571428574,0.00948234356682362
41.48571428571429,0.009595111829271037
41.6,0.009623558562943528
41.714285714285715,0.009541776315868618
41.82857142857143,0.00935327440393104
41.94285714285714,0.009093053493870545
42.05714285714286,0.008824772670652396
42.17142857142857,0.00862882668555021
42.285714285714285,0.008580583374422973
42.4,0.008725608958539565
42.51428571428571,0.009061695803926904
42.628571428571426,0.00953366724141692
42.74285714285714,0.010042700262631175
42.857142857142854,0.010470708604822904
42.97142857142857,0.0107171144439712
43.08571428571428,0.01073683372740738
43.199999999999996,0.01056170483793993
43.31428571428571,0.010292248400028518
43.42857142857143,0.010060905739621918
43.542857142857144,0.009981136647161118
43.65714285714286,0.010102319628013369
43.77142857142857,0.010389379548084925
43.885714285714286,0.010739120658350353
44.0,0.011029916199119326
44.114285714285714,0.011181456677139247
44.22857142857143,0.011191240038949776
44.34285714285714,0.011126797961851943
44.457142857142856,0.01108098940697239
44.57142857142857,0.011119817548231803
44.68571428571428,0.011251519916331458
44.8,0.011426875238277944
44.91428571428571,0.011562376174104267
45.028571428571425,0.01157240686702891
45.14285714285714,0.01140021312708987
45.25714285714285,0.011040070415204594
45.37142857142857,0.010542159660155523
45.48571428571429,0.00999427470665736
45.6,0.009485681872086744
45.714285714285715,0.00907190554051323
45.82857142857143,0.008761903818122065
45.94285714285714,0.008535192483922134
46.05714285714286,0.008375135360649294
46.17142857142857,0.008293158581227996
46.285714285714285,0.008326868520320262
46.4,0.0085155365320436
46.51428571428571,0.008871394607160498
46.628571428571426,0.009364058369181107
46.74285714285714,0.009923624998530766
46.857142857142854,0.010457883345644747
46.97142857142857,0.010875824806027168
47.08571428571428,0.011110142136456608
47.199999999999996,0.011132701799698361
47.31428571428571,0.01095946691160863
47.42857142857143,0.010644571446541004
47.542857142857144,0.010264951202203438
47.65714285714286,0.00989760555225445
47.77142857142857,0.009594757092322485
47.885714285714286,0.009367728057538768
48.0,0.009191099504608773
48.114285714285714,0.009028467975961237
48.22857142857143,0.008864970030899552
48.34285714285714,0.008724079473301592
48.457142857142856,0.008656048732744866
48.57142857142857,0.00870575598416928
48.68571428571428,0.008881818736160257
48.8,0.009146569741082484
48.91428571428571,0.00943277599432608
49.028571428571425,0.009679753399427518
49.14285714285714,0.009874801522083983
49.25714285714285,0.010082915382257095
49.37142857142857,0.01044551072844919
49.48571428571429,0.011132189686923814
49.6,0.012247973158806658
49.714285714285715,0.013732513083652188
49.82857142857143,0.015316511006195762
49.94285714285714,0.01658913233162053
50.05714285714286,0.017165245237320704
50.17142857142857,0.01686252979205368
50.285714285714285,0.015777352767753213
50.4,0.014215567831326548
50.51428571428571,0.012536190584563093
50.628571428571426,0.011013124536941903
50.74285714285714,0.009781368599820688
50.857142857142854,0.008860797421241691
50.97142857142857,0.008210238917101528
51.08571428571428,0.007772706601771837
51.199999999999996,0.007498369881629847
51.31428571428571,0.007347987070004749
51.42857142857142,0.007285479235147811
51.542857142857144,0.007271403402389746
51.65714285714286,0.007266994275529705
51.77142857142857,0.00724781183317741
51.885714285714286,0.007215034076679454
52.0,0.0071932305769949155
52.114285714285714,0.007215731202738673
52.22857142857143,0.0073091289484403495
52.34285714285714,0.007486553098970829
52.457142857142856,0.007748911288481165
52.57142857142857,0.008086690350683197
52.68571428571428,0.00847861046065648
52.8,0.008891255045929424
52.91428571428571,0.009284817151830745
53.028571428571425,0.009622446818099614
53.14285714285714,0.009874814146810604
53.25714285714285,0.010017155288860723
53.37142857142857,0.010027823541510127
53.48571428571429,0.009899019194462247
53.6,0.009655890304311628
53.714285714285715,0.009364658516529104
53.82857142857143,0.009113818272394053
53.94285714285714,0.008974906566180458
54.05714285714286,0.008969323261206523
54.17142857142857,0.009065472551481005
54.285714285714285,0.009208044489863195
54.4,0.009357874889742906
54.51428571428571,0.00951423714619806
54.628571428571426,0.009704865363401418
54.74285714285714,0.009951936228046456
54.857142857142854,0.010239059808884909
54.97142857142857,0.010504092985904753
55.08571428571428,0.010665301921523339
