Frequency,PSD
6.0,0.4668336517126125
6.08,0.4627221216424079
6.16,0.45593456313927494
6.24,0.4489340746326628
6.32,0.4445445434378309
6.4,0.44522593085184686
6.48,0.4524426956562497
6.5600000000000005,0.4662135458296682
6.640000000000001,0.4849387715426705
6.72,0.5056505564074353
6.8,0.5247862303002213
6.88,0.5393536435231715
6.96,0.5480473922071026
7.04,0.551747631661524
7.12,0.5530713494857205
7.2,0.5551449571020624
7.28,0.5601974900642717
7.36,0.5686548739840804
7.44,0.5791247683257715
7.5200000000000005,0.5892018757577024
7.6000000000000005,0.5966453386169638
7.68,0.600342908532108
7.76,0.6006202613734634
7.84,0.598807995354768
7.92,0.5963752923976172
8.0,0.5941627457831252
8.08,0.5921557385670825
8.16,0.5898830621163211
8.24,0.5871329567256232
8.32,0.5844997744851476
8.4,0.5834003848977778
8.48,0.5855240065071632
8.56,0.592001858888588
8.64,0.6027357131660117
8.72,0.6162385327420554
8.8,0.6300673581142748
8.88,0.6416262323984612
8.96,0.6489712779647426
9.040000000000001,0.6513449655637522
9.120000000000001,0.6494074878907169
9.200000000000001,0.6453143402461736
9.28,0.6427590500248613
9.36,0.6468794507989096
9.44,0.6636937892152205
9.52,0.6987148212699358
9.6,0.7547309601354744
9.68,0.829393866318139
9.76,0.9138826313980114
9.84,0.99397645466759
9.92,1.0539423825694998
10.0,1.0819708815548414
10.08,1.0745312429170906
10.16,1.0371932538511273
10.24,0.9814109066506033
10.32,0.919245338862758
10.4,0.8591688284266995
10.48,0.8050648961316904
10.56,0.7581842882976912
10.64,0.7199441424688647
10.72,0.6933044198646938
10.8,0.681839623369742
10.88,0.687349348225424
10.96,0.7077553143507236
11.040000000000001,0.7367266240592294
11.120000000000001,0.7653706900650179
11.200000000000001,0.7851787554438322
11.28,0.7908243056113551
11.36,0.7815772232951169
11.44,0.7608271717221325
11.52,0.7341035761235676
11.6,0.706616300726694
11.68,0.6814433809246229
11.76,0.6590429924193042
11.84,0.6380375650233512
11.92,0.6166292153555357
12.0,0.5938575822856027
12.08,0.5701901588956952
12.16,0.5473754458205408
12.24,0.5278126271815095
12.32,0.5137852095943265
12.4,0.5068189826695177
12.48,0.5072729013167969
12.56,0.5141654822209597
12.64,0.5252339640337547
12.72,0.5372763134267053
12.8,0.5468190446028214
12.88,0.5510095745441969
12.96,0.548425145097416
13.040000000000001,0.5394134235950891
13.120000000000001,0.5257663827157778
13.200000000000001,0.5099012314947157
13.280000000000001,0.49401839973759826
13.36,0.47968331894628513
13.44,0.4679253493384623
13.52,0.4595282705937044
13.6,0.45505043654209015
13.68,0.45439656794249716
13.76,0.456246871518432
13.84,0.4579140529449635
13.92,0.45598681764925486
14.0,0.44757170984698585
14.08,0.43149206841286625
14.16,0.4087912412683178
14.24,0.38230575914647263
14.32,0.3555988656692932
14.4,0.3318241087952318
14.48,0.31299564437063604
14.56,0.2998129862051804
14.64,0.2918772347578854
14.72,0.28802700246700924
14.8,0.2866239243681556
14.88,0.28579094195284177
14.96,0.2836915404558118
15.040000000000001,0.278881406635371
15.120000000000001,0.27064622550892864
15.200000000000001,0.259184363363407
15.280000000000001,0.2455505488362606
15.36,0.2313909966425284
15.44,0.2185810577081741
15.52,0.20887809487092457
15.6,0.20364267232380037
15.68,0.20361263666751814
15.76,0.20869475842463775
15.84,0.21779884630147708
15.92,0.22884273630808039
16.0,0.23909318732896417
16.080000000000002,0.24588074863197396
16.16,0.24747370145027703
16.240000000000002,0.24370239956780537
16.32,0.2359765057365889
16.4,0.2266425349636988
16.48,0.21799228684448863
16.56,0.21140936253695508
16.64,0.2070277395958584
16.72,0.2039726661375093
16.8,0.20096364265511513
16.88,0.1969384192373721
16.96,0.191430793651394
17.04,0.18461681929215043
17.12,0.17711292059497283
17.2,0.1696836991945286
17.28,0.16298937387056228
17.36,0.15742778268335705
17.44,0.15307170803612022
17.52,0.14969471456106465
17.6,0.1468862500310754
17.68,0.1442342454744961
17.76,0.1415014489551474
17.84,0.1386947427955663
17.92,0.1359745675470618
18.0,0.13345664851440983
18.080000000000002,0.13104085690805387
18.16,0.12839250310490585
18.240000000000002,0.12510328952726327
18.32,0.12094307268441765
18.400000000000002,0.11605576746234207
18.48,0.11098208435003477
18.56,0.1064829242782728
18.64,0.10323772853824933
18.72,0.10155373983869409
18.8,0.1012200422743409
18.88,0.10157794492266739
18.96,0.10178405370857478
19.04,0.10115513045248366
19.12,0.09944562310457492
19.2,0.09694284488339289
19.28,0.09435771068979402
19.36,0.09258694114118984
19.44,0.09246091198180624
19.52,0.09454649414924296
19.6,0.09899530665714712
19.68,0.1054020965967409
19.76,0.11270510801860324
19.84,0.11925412625437637
19.92,0.12316673932877853
20.0,0.12293387039149568
20.080000000000002,0.11802269084736944
20.16,0.10914733295011046
20.240000000000002,0.09803385066277502
20.32,0.08679536953865477
20.400000000000002,0.07724035135138503
20.48,0.0704230058409267
20.56,0.06655660835067209
20.64,0.06520903741222009
20.72,0.06561039473648124
20.8,0.06693409643739849
20.88,0.06849336875829647
20.96,0.0698529769366665
21.04,0.07086802853655294
21.12,0.07164880270345086
21.2,0.0724468911263906
21.28,0.07348155565010066
21.36,0.0747653815272178
21.44,0.07601294941010606
21.52,0.07669538737738535
21.6,0.07623565325461236
21.68,0.07425999868589586
21.76,0.0707825606036659
21.84,0.06623176590063952
21.92,0.06131057016392116
22.0,0.05676437414335457
22.080000000000002,0.053163732750958065
22.16,0.05078374911632759
22.240000000000002,0.049603876145923535
22.32,0.049397155220497854
22.400000000000002,0.049851115604459525
22.48,0.05066809347627391
22.56,0.05161901895181079
22.64,0.05255296794051053
22.72,0.053379647678480024
22.8,0.05404079725470853
22.88,0.054479889590673944
22.96,0.054619891122550515
23.04,0.0543653229280367
23.12,0.05364225765390581
23.2,0.05246671937766177
23.28,0.05099992486976199
23.36,0.04953851757563941
23.44,0.04841959110338592
23.52,0.04787813783724529
23.6,0.0479346785720314
23.68,0.0483786055619245
23.76,0.04885489408114888
23.84,0.04900170354705725
23.92,0.04856686802434157
24.0,0.04745963452734137
24.080000000000002,0.04574036201649499
24.16,0.04357852051946839
24.240000000000002,0.04120582532472682
24.32,0.03887260581881707
24.400000000000002,0.036804282994246484
24.48,0.03515897937402451
24.560000000000002,0.03399737883512385
24.64,0.033278642081966556
24.72,0.03288693070822302
24.8,0.03267819887265654
24.88,0.032526931622721716
24.96,0.03235409331279426
25.04,0.03212912437338045
25.12,0.03185243850570351
25.2,0.03153252756726632
25.28,0.03117076911055036
25.36,0.030759935989780485
25.44,0.030293590126435534
25.52,0.029777047153466043
25.6,0.029230069507231782
25.68,0.02867831943474747
25.76,0.028140646362880467
25.84,0.027623704485278847
25.92,0.027129176782368238
26.0,0.026667759248319947
26.080000000000002,0.026269617020017302
26.16,0.025987255999624218
26.240000000000002,0.025894409816998417
26.32,0.0260821410880945
26.400000000000002,0.026642822251838203
26.48,0.027629789005810375
26.560000000000002,0.028997228728729722
26.64,0.0305524583202022
26.72,0.03196515244777861
26.8,0.03285547147519284
26.88,0.032933594722712116
26.96,0.03212160290831378
27.04,0.030589426874221663
27.12,0.028683677781735008
27.2,0.02678947305483733
27.28,0.02519850351343632
27.36,0.02404291571109366
27.44,0.02331026965701539
27.52,0.02291230968079323
27.6,0.022761932678600116
27.68,0.02282025842852451
27.76,0.023097646479825318
27.84,0.023616158783222548
27.92,0.024357836446386377
28.0,0.025228418275715352
28.080000000000002,0.026057913800685804
28.16,0.02664063104836209
28.240000000000002,0.0267968537735697
28.32,0.02642795456008529
28.400000000000002,0.02554238785241032
28.48,0.02424679071690377
28.560000000000002,0.02271222945796248
28.64,0.02113151549865541
28.72,0.019680000663436815
28.8,0.01848600816600708
28.88,0.017613239735333852
28.96,0.017056505610498245
29.04,0.01675179577312257
29.12,0.01660019700958503
29.2,0.01650161815742844
29.28,0.016389285376169963
29.36,0.01625247966177474
29.44,0.016137222547812944
29.52,0.016123658985356507
29.6,0.016289795577247777
29.68,0.01667661802283163
29.76,0.01726671069115376
29.84,0.017981498498658093
29.92,0.01869662311592159
30.0,0.01927164711119455
30.080000000000002,0.019586793467602365
30.16,0.01957562148684301
30.240000000000002,0.01924198534168644
30.32,0.018654918614293713
30.400000000000002,0.01792397812137828
30.48,0.017164981869789996
30.560000000000002,0.01646872783756653
30.64,0.015883263612503525
30.72,0.015415119696100418
30.8,0.01504800241701959
30.88,0.014770357714234225
30.96,0.014598439207996578
31.04,0.014581801576317239
31.12,0.01478488863690491
31.2,0.015249993061526572
31.28,0.01595827222599672
31.36,0.016810007879942843
31.44,0.017638547793610997
31.52,0.0182562088296038
31.6,0.018513202693255525
31.68,0.018342725235303482
31.76,0.01777227599466933
31.84,0.016899459882387474
31.92,0.015848964787238982
32.0,0.014734805236357215
32.08,0.013644361138192214
32.160000000000004,0.012644324409060046
32.24,0.011794966148600317
32.32,0.011156782465322394
32.4,0.010782372520771364
32.480000000000004,0.010698455049901974
32.56,0.010889539478845519
32.64,0.011292986367916622
32.72,0.011808584220844041
32.8,0.01231969495587074
32.88,0.012719871798158255
32.96,0.012937760509596535
33.04,0.0129530187592705
33.12,0.012797658932260387
33.2,0.01254169024061438
33.28,0.012268082491008494
33.36,0.012046497007195385
33.44,0.011915000645231861
33.52,0.011874399150481777
33.6,0.011894267942303685
33.68,0.011926587309741528
33.76,0.011922599228017873
33.84,0.011849087772361525
33.92,0.011700212580975457
34.0,0.011501077841137353
34.08,0.011301015087456161
34.160000000000004,0.011157992238510434
34.24,0.01111872240999516
34.32,0.011200502515964704
34.4,0.011380816133850712
34.480000000000004,0.011599700064079484
34.56,0.011776805637256344
34.64,0.011839044269563025
34.72,0.011747828201575546
34.800000000000004,0.011512391834720725
34.88,0.011181277825326963
34.96,0.010815689722093715
35.04,0.010458840810875197
35.12,0.010117893333041205
35.2,0.00976811880715873
35.28,0.009376714667767794
35.36,0.008933064551584494
35.44,0.008468868021318118
35.52,0.008057258830859655
35.6,0.007791161288799791
35.68,0.007750688371696932
35.76,0.00797231265517835
35.84,0.008429766134000274
35.92,0.009032801580808733
36.0,0.009647164129181558
36.08,0.010134568912498376
36.160000000000004,0.010402599575668133
36.24,0.010444986226884966
36.32,0.010351129071861222
36.4,0.010274720645824364
36.480000000000004,0.010370331627517769
36.56,0.010723415316676971
36.64,0.011304683884960535
36.72,0.011971372510806915
36.800000000000004,0.012518086716267881
36.88,0.01275621574585779
36.96,0.012585311559055339
37.04,0.012023460096154789
37.12,0.011186675253894848
37.2,0.01023514065885477
37.28,0.009317684288492611
37.36,0.008538071336724245
37.44,0.007947602587679313
37.52,0.007554231898720854
37.6,0.007336465684021942
37.68,0.0072561606618081285
37.76,0.007269603635273168
37.84,0.007337137256803049
37.92,0.007429919458834425
38.0,0.007531542881453662
38.08,0.007633750076054791
38.160000000000004,0.007728603603821131
38.24,0.0078020813640194316
38.32,0.00783393002108506
38.4,0.007804964433957956
38.480000000000004,0.007707778365434837
38.56,0.0075538446406389955
38.64,0.007371899647435743
38.72,0.007198173391676223
38.800000000000004,0.007064173997911965
38.88,0.006988875858581974
38.96,0.006979826179724465
39.04,0.007045525098430832
39.12,0.007221905685369609
39.2,0.007616505169925762
39.28,0.008468251161580658
39.36,0.010202437066554213
39.44,0.013431966613107306
39.52,0.01883697176670705
39.6,0.026880274810371182
39.68,0.03741023932328704
39.76,0.04933593239233126
39.84,0.060631857411448414
39.92,0.06882965822514962
40.0,0.07187923284079378
40.08,0.06897874925407427
40.160000000000004,0.060916098280068096
40.24,0.049721964722551505
40.32,0.03783881709936635
40.4,0.02726511382799286
40.480000000000004,0.019073429539253495
40.56,0.013415613262123755
40.64,0.009852648704125454
40.72,0.00774895329821999
40.800000000000004,0.006546838114028031
40.88,0.005873792285712208
40.96,0.00553047394290638
41.04,0.005430375395426563
41.12,0.005539141963962885
41.2,0.00583060701312399
41.28,0.0062595249944861564
41.36,0.006749209737199869
41.44,0.007196017984739452
41.52,0.00749182651360928
41.6,0.007557753283928162
41.68,0.0073734842818416095
41.76,0.006985643783150876
41.84,0.006488945926368052
41.92,0.005989269999684657
42.0,0.005567586711988279
42.08,0.005261342694161089
42.160000000000004,0.005068116490610174
42.24,0.004963968569643672
42.32,0.004923725274489366
42.4,0.004933780708710482
42.480000000000004,0.004995030554250999
42.56,0.005118286083124683
42.64,0.0053149822888282116
42.72,0.005585063257421354
42.800000000000004,0.005905261415850064
42.88,0.006224245683618913
42.96,0.0064716585655760165
43.04,0.006582018412975678
43.12,0.00652411534028125
43.2,0.0063198583886414075
43.28,0.006040272471768957
43.36,0.0057790893278362575
43.44,0.005617069833313533
43.52,0.005594015328009858
43.6,0.0056991836070699724
43.68,0.00588065752893387
43.76,0.00606695488224453
43.84,0.006192004797043755
43.92,0.006215666466979162
44.0,0.006134126595912356
44.08,0.005977453200712831
44.160000000000004,0.005795577055141259
44.24,0.005638165035186816
44.32,0.005536303139809379
44.4,0.00549308559909395
44.480000000000004,0.005486247543555313
44.56,0.0054807185879724146
44.64,0.005444897547993224
44.72,0.005363367855692261
44.800000000000004,0.005241007024993569
44.88,0.005097772476418683
44.96,0.00495772452287711
45.04,0.0048380215206646725
45.12,0.00474281130423658
45.2,0.004663960300576378
45.28,0.004587322553050981
45.36,0.0045013708779032165
45.44,0.004404788930249034
45.52,0.004310311139965588
45.6,0.004243043599938727
45.68,0.00423281633453401
45.76,0.004302203602687205
45.84,0.004454374128880318
45.92,0.004666476112653688
46.0,0.004893133076455253
46.08,0.005080375720091573
46.160000000000004,0.0051847614391689004
46.24,0.005188960751607158
46.32,0.005106422256352522
46.4,0.00497344525187229
46.480000000000004,0.0048334519869643565
46.56,0.004721347375201863
46.64,0.004654196341247856
46.72,0.00463004356743818
46.800000000000004,0.004632782606496036
46.88,0.004639471410712633
46.96,0.004627225407547054
47.04,0.004578432200995734
47.12,0.004484179785841959
47.2,0.004345949280691111
47.28,0.004175287484454657
47.36,0.003991281226765602
47.44,0.0038165168574325233
47.52,0.0036730339291417106
47.6,0.003579531526592284
47.68,0.003549787169003643
47.76,0.0035911532271733215
47.84,0.0037022642811466305
47.92,0.00387051441059251
48.0,0.004071106530381379
48.08,0.0042694507855086695
48.160000000000004,0.0044274585259605065
48.24,0.004512615689870533
48.32,0.004507245776969489
48.4,0.004414498030053983
48.480000000000004,0.004257989143421539
48.56,0.004074310082456973
48.64,0.0039011815266918985
48.72,0.0037666984651165726
48.800000000000004,0.003684643340556449
48.88,0.0036573095841777557
48.96,0.003683352239173838
49.04,0.0037671137886847138
49.120000000000005,0.003928674357093695
49.2,0.004217975814774372
49.28,0.004736533304249939
49.36,0.0056617677231513355
49.44,0.007252757728005224
49.52,0.009803227270783824
49.6,0.013516978877857883
49.68,0.01832574848570523
49.76,0.023734943726669826
49.84,0.028819628890301586
49.92,0.032447684064291715
50.0,0.03367782999508537
50.08,0.03214633529601807
50.160000000000004,0.028228120148434763
50.24,0.022877492633106965
50.32,0.01724228308229896
50.4,0.012264489152449334
50.480000000000004,0.008453037162895263
50.56,0.005882194654712718
50.64,0.004341819382580481
50.72,0.003520272594312486
50.800000000000004,0.0031352960477917455
50.88,0.00299014424442582
50.96,0.002974926551254607
51.04,0.0030432490602515586
51.120000000000005,0.003184384535900829
51.2,0.00339877845045888
51.28,0.0036789228529698383
51.36,0.003997982163938419
51.44,0.0043096336399653205
51.52,0.0045599394483710354
51.6,0.0047059561643480585
51.68,0.004730938992904285
51.76,0.004647335878742989
51.84,0.00448642683291073
51.92,0.004281946745631369
52.0,0.004057869771354012
52.08,0.0038260904519330386
52.160000000000004,0.003592304420403352
52.24,0.0033638285770368377
52.32,0.0031538100705780486
52.4,0.002980201170102144
52.480000000000004,0.0028613783230238207
52.56,0.0028112894552454262
52.64,0.0028359068386347042
52.72,0.002931220730700247
52.800000000000004,0.003082424614191835
52.88,0.0032645261454484088
52.96,0.003445424383028378
53.04,0.0035922458006705906
53.120000000000005,0.0036799895459734173
53.2,0.0036993373151144975
53.28,0.0036596931317159917
53.36,0.0035851964131981265
53.44,0.0035048238859495965
53.52,0.0034407630823948257
53.6,0.00340031854008552
53.68,0.00337519829781138
53.76,0.003348626636971385
53.84,0.0033066322760477588
53.92,0.0032471851970902526
54.0,0.003181721309269436
54.08,0.0031281655773833864
54.160000000000004,0.0030999836716540455
54.24,0.0030980669834249313
54.32,0.0031098073286275657
54.4,0.0031148439580079546
54.480000000000004,0.0030935209299118326
54.56,0.0030339428464217313
54.64,0.0029354938593389632
54.72,0.002808611337657533
54.800000000000004,0.0026715841293179186
54.88,0.0025456524058607103
54.96,0.002450087391681127
55.04,0.0023987753572620937
