Frequency,PSD
6.0,0.4949298738293829
6.08,0.49573948094179376
6.16,0.497280393682517
6.24,0.4994189886582304
6.32,0.5020059751858932
6.4,0.504921546066653
6.48,0.5081126992738112
6.5600000000000005,0.5116108898544887
6.640000000000001,0.5155234018653488
6.72,0.5199997829105293
6.8,0.5251831525716752
6.88,0.5311622588684385
6.96,0.5379411436557245
7.04,0.5454379479904021
7.12,0.5535138173825461
7.2,0.5620205232278266
7.28,0.5708461674580363
7.36,0.5799365855556026
7.44,0.5892777162984052
7.5200000000000005,0.5988394174341509
7.6000000000000005,0.6084986220399793
7.68,0.6179723615309249
7.76,0.6267932203128246
7.84,0.634349173201433
7.92,0.6399893191837416
8.0,0.6431736345015031
8.08,0.6436269124160625
8.16,0.6414512841262898
8.24,0.6371607105018101
8.32,0.6316220712231492
8.4,0.6259142067686512
8.48,0.6211398304939857
8.56,0.6182379608187766
8.64,0.6178423251757822
8.72,0.6202149492727963
8.8,0.6252595752011614
8.88,0.6325953300687381
8.96,0.6416558015919527
9.040000000000001,0.6517776464690889
9.120000000000001,0.6622557980519914
9.200000000000001,0.672363336840869
9.28,0.6813538521925071
9.36,0.6884738837043074
9.44,0.6930083942488459
9.52,0.6943652370842417
9.6,0.6921829064859828
9.68,0.6864293993801951
9.76,0.6774564274775554
9.84,0.6659845073522133
9.92,0.6530161548683383
10.0,0.6396977223947145
10.08,0.627166182774674
10.16,0.6164197437085623
10.24,0.6082404870852639
10.32,0.603178203256211
10.4,0.6015846264872358
10.48,0.6036730946592116
10.56,0.6095740313922916
10.64,0.6193617741993767
10.72,0.6330405314895102
10.8,0.6504926039828784
10.88,0.6714061919352077
10.96,0.6952093833347839
11.040000000000001,0.7210385484071149
11.120000000000001,0.7477622395895683
11.200000000000001,0.7740670212002474
11.28,0.7985932664685578
11.36,0.8200926319360207
11.44,0.8375704926383009
11.52,0.8503796092138861
11.6,0.8582451295954517
11.68,0.8612209849328836
11.76,0.8595967906034394
11.84,0.8537860664319047
11.92,0.8442276472450563
12.0,0.8313234321272722
12.08,0.8154213127027641
12.16,0.7968376708007294
12.24,0.7759037160642188
12.32,0.7530162403247431
12.4,0.7286756241499446
12.48,0.7034999178405167
12.56,0.6782108378307282
12.64,0.6535935318492558
12.72,0.6304361459734651
12.8,0.6094578033315299
12.88,0.5912351955647989
12.96,0.5761388659031477
13.040000000000001,0.5642900237721993
13.120000000000001,0.5555465969936771
13.200000000000001,0.5495227727612353
13.280000000000001,0.5456400609704337
13.36,0.5432015164956105
13.44,0.541476135958927
13.52,0.5397789736938832
13.6,0.5375343635114598
13.68,0.5343138300147433
13.76,0.5298454458446324
13.84,0.5239965009234013
13.92,0.5167359740258805
14.0,0.50808726674649
14.08,0.4980844321110897
14.16,0.4867455138555331
14.24,0.4740732419011636
14.32,0.4600857205923203
14.4,0.44486926518509784
14.48,0.42863552033496854
14.56,0.4117596485901648
14.64,0.39477891071916027
14.72,0.378341789388924
14.8,0.3631139036933551
14.88,0.3496627687933179
14.96,0.33835304258989257
15.040000000000001,0.3292833735603421
15.120000000000001,0.32228503906683215
15.200000000000001,0.31698467880779174
15.280000000000001,0.3129144113294211
15.36,0.3096385629246776
15.44,0.3068614296877559
15.52,0.30448615497763365
15.6,0.3026089333490166
15.68,0.30145099654869545
15.76,0.30124797453338265
15.84,0.30212769526243144
15.92,0.3040105271395052
16.0,0.30656050816058705
16.080000000000002,0.3092024631562532
16.16,0.3112034480751459
16.240000000000002,0.311800399158342
16.32,0.31034396214160037
16.4,0.3064242512658344
16.48,0.2999489491484069
16.56,0.29115650779763314
16.64,0.2805638077073997
16.72,0.26886373542093295
16.8,0.25679920135546064
16.88,0.2450432879176639
16.96,0.23411024596339752
17.04,0.2243112310734644
17.12,0.21575581839317187
17.2,0.20838938056839285
17.28,0.20205009099127996
17.36,0.19652850239371103
17.44,0.19161645589910564
17.52,0.18713846530739833
17.6,0.1829653487153167
17.68,0.17901479484424782
17.76,0.1752456442167982
17.84,0.17165182073709237
17.92,0.16825886229478462
18.0,0.16512228886867736
18.080000000000002,0.16232421022738308
18.16,0.15996385796391782
18.240000000000002,0.15813955194692725
18.32,0.1569233534373217
18.400000000000002,0.15633379621516744
18.48,0.15631475838861653
18.56,0.15672830527175746
18.64,0.15736587738437974
18.72,0.1579765809231508
18.8,0.15830567397473944
18.88,0.15813293686582355
18.96,0.15730094585037516
19.04,0.15572726826612482
19.12,0.1534006159503182
19.2,0.15036649907737173
19.28,0.14671062210930932
19.36,0.14254713550617193
19.44,0.13801460151207884
19.52,0.133277236077714
19.6,0.12852516473101325
19.68,0.12396688191455749
19.76,0.11981013015120003
19.84,0.11623270377545664
19.92,0.11334991524941562
20.0,0.11118835624807447
20.080000000000002,0.10967487629558147
20.16,0.10864564432718603
20.240000000000002,0.10787434197186993
20.32,0.1071131332925847
20.400000000000002,0.10613688253015219
20.48,0.10478093059805324
20.56,0.10296518822644696
20.64,0.10070115018875588
20.72,0.09808231992431837
20.8,0.09526150686268597
20.88,0.09242019936266363
20.96,0.0897358787812269
21.04,0.0873530074250004
21.12,0.08536262709482817
21.2,0.0837939890678221
21.28,0.08261934984552533
21.36,0.08177022594959535
21.44,0.08116061043854718
21.52,0.0807107741515538
21.6,0.08036507563020923
21.68,0.0800989777423386
21.76,0.07991381141570186
21.84,0.07982171054816302
21.92,0.079826274859185
22.0,0.07990583193856647
22.080000000000002,0.08000523482089295
22.16,0.08003930768353408
22.240000000000002,0.07990733317046313
22.32,0.07951459334942526
22.400000000000002,0.0787949542325146
22.48,0.07772830949538612
22.56,0.07634824230043068
22.64,0.0747379197899815
22.72,0.0730151920675324
22.8,0.07131037393295092
22.88,0.06974171780867443
22.96,0.06839389739083523
23.04,0.06730393575752008
23.12,0.06645717532866237
23.2,0.06579352866729096
23.28,0.06522192104273254
23.36,0.06463911317012243
23.44,0.06394842611935013
23.52,0.0630744508488038
23.6,0.06197141017002896
23.68,0.06062490825982262
23.76,0.05904864084956085
23.84,0.05727863002643943
23.92,0.0553674124505896
24.0,0.05337952676684883
24.080000000000002,0.05138817575088045
24.16,0.04947178194554563
24.240000000000002,0.04770884716376153
24.32,0.046170205920838925
24.400000000000002,0.04490912540567938
24.48,0.04395114686125903
24.560000000000002,0.04328645129624182
24.64,0.04286746296964263
24.72,0.04261334949017237
24.8,0.042421369576454634
24.88,0.04218320249417911
24.96,0.04180302110647158
25.04,0.0412135320155171
25.12,0.04038662643437686
25.2,0.039336518396134994
25.28,0.03811494427773511
25.36,0.03679972117654064
25.44,0.0354793052185585
25.52,0.03423667754438115
25.6,0.03313581695928972
25.68,0.032213268087041606
25.76,0.03147608322347231
25.84,0.03090597452901834
25.92,0.03046815187824938
26.0,0.030122321186055765
26.080000000000002,0.02983291515234911
26.16,0.029575963255781736
26.240000000000002,0.02934105461091813
26.32,0.02912836359740448
26.400000000000002,0.028942254658933693
26.48,0.028784042605243247
26.560000000000002,0.028646658389138165
26.64,0.028513162196731306
26.72,0.028359543301366728
26.8,0.028160629156195608
26.88,0.027896829582557094
26.96,0.027559278906794542
27.04,0.027151719936534917
27.12,0.02668881300210998
27.2,0.026191859476561205
27.28,0.025683681125460163
27.36,0.025184366895906453
27.44,0.0247089206707523
27.52,0.024266905010658247
27.6,0.023863410729478892
27.68,0.023500371337840373
27.76,0.023177417234031494
27.84,0.022891945066129675
27.92,0.02263859164426702
28.0,0.022408627061417382
28.080000000000002,0.022189829156052904
28.16,0.02196721663206093
28.240000000000002,0.0217247205506491
28.32,0.021447581290293203
28.400000000000002,0.021125039636450526
28.48,0.020752766194444584
28.560000000000002,0.020334443477514775
28.64,0.01988199071132802
28.72,0.019414126065872842
28.8,0.018953302871642774
28.88,0.018521491408665484
28.96,0.018135694154039577
29.04,0.01780432506742415
29.12,0.01752551609566791
29.2,0.01728798898691694
29.28,0.017074432533674532
29.36,0.016866561609091092
29.44,0.016650467189623777
29.52,0.016420713242756357
29.6,0.016181976901851143
29.68,0.01594776349309129
29.76,0.015736610203967015
29.84,0.01556692044646012
29.92,0.015451909289088454
30.0,0.01539600706938513
30.080000000000002,0.015393555911440215
30.16,0.015429953209674246
30.240000000000002,0.015484777099312478
30.32,0.015536029431738159
30.400000000000002,0.015564497697684325
30.48,0.01555732363194686
30.560000000000002,0.015510093729419687
30.64,0.01542707306153449
30.72,0.01531955677388876
30.8,0.015202689284621292
30.88,0.0150914495543817
30.96,0.014996735692492522
31.04,0.014922508906841506
31.12,0.0148647243496672
31.2,0.01481232049217654
31.28,0.014749985375597387
31.36,0.014661940789864778
31.44,0.01453573577737772
31.52,0.014365089290529489
31.6,0.01415113569072918
31.68,0.013901891967389703
31.76,0.013630235546324004
31.84,0.013351028273454538
31.92,0.01307816929761986
32.0,0.012822292555489683
32.08,0.012589582607758092
32.160000000000004,0.0123818419164691
32.24,0.012197596998737353
32.32,0.0120337712155299
32.4,0.011887346030871992
32.480000000000004,0.011756506460773093
32.56,0.011640993109389697
32.64,0.011541685188416874
32.72,0.011459709259844414
32.8,0.011395507461909203
32.88,0.011348255199185898
32.96,0.0113158151359675
33.04,0.011295146283725256
33.12,0.011282880818198426
33.2,0.011275736683362205
33.28,0.011270571658106805
33.36,0.011264130380461906
33.44,0.011252754781737602
33.52,0.011232393698930667
33.6,0.011199110705430846
33.68,0.011150012210049099
33.76,0.011084245278952512
33.84,0.011003598701520177
33.92,0.010912357620224446
34.0,0.010816365962145542
34.08,0.0107215949645454
34.160000000000004,0.010632728970132434
34.24,0.010552257417800677
34.32,0.010480322712521048
34.4,0.0104152446644498
34.480000000000004,0.010354387467083153
34.56,0.010294966657084733
34.64,0.01023451660151147
34.72,0.010170961481417537
34.800000000000004,0.010102426156760748
34.88,0.01002699763170342
34.96,0.009942594049005654
35.04,0.009846978946746403
35.12,0.009737859931960526
35.2,0.009612988851749472
35.28,0.00947023398576546
35.36,0.009307676222018748
35.44,0.00912383085172196
35.52,0.008918077009174814
35.6,0.008691289312806357
35.68,0.008446546626141024
35.76,0.008189692848139269
35.84,0.007929491155791649
35.92,0.007677171353446798
36.0,0.0074453138327997504
36.08,0.007246205078919881
36.160000000000004,0.007089978628427442
36.24,0.006982959507100365
36.32,0.006926618117938467
36.4,0.006917408130255768
36.480000000000004,0.006947549175149483
36.56,0.0070065821194560144
36.64,0.0070833382112181755
36.72,0.00716787120380756
36.800000000000004,0.007252922617479057
36.88,0.007334614867794413
36.96,0.007412262859186532
37.04,0.007487414568763095
37.12,0.007562420939883328
37.2,0.0076389447849106624
37.28,0.007716815240950178
37.36,0.007793517973524362
37.44,0.007864417140212349
37.52,0.007923594715631388
37.6,0.007965031840935315
37.68,0.00798379041663881
37.76,0.007976890278303802
37.84,0.007943692299040555
37.92,0.007885745533273574
38.0,0.007806192328950648
38.08,0.0077089189277364575
38.160000000000004,0.007597678239641702
38.24,0.0074753977067685915
38.32,0.007343827545559418
38.4,0.007203596663821822
38.480000000000004,0.007054642839308775
38.56,0.0068968916631829726
38.64,0.006730996870660852
38.72,0.006558938771304049
38.800000000000004,0.006384311974162494
38.88,0.006212209606002038
38.96,0.0060487090828255825
39.04,0.00590005931653708
39.12,0.005771737422394876
39.2,0.00566756833230388
39.28,0.005589079027993788
39.36,0.0055351999567348695
39.44,0.005502350046866396
39.52,0.0054848721936305534
39.6,0.005475739897804915
39.68,0.005467435954357399
39.76,0.0054529008559227625
39.84,0.005426447902997424
39.92,0.005384537077204998
40.0,0.005326296865071373
40.08,0.005253697685079686
40.160000000000004,0.005171324384409303
40.24,0.005085765420381515
40.32,0.005004712336514395
40.4,0.004935916760263818
40.480000000000004,0.004886163637779677
40.56,0.004860389501689958
40.64,0.004861023970789084
40.72,0.004887589208408191
40.800000000000004,0.004936573497562238
40.88,0.00500159886203359
40.96,0.0050739086300940475
41.04,0.005143184963416641
41.12,0.005198656656521831
41.2,0.005230382801759805
41.28,0.005230525079961781
41.36,0.005194383058258231
41.44,0.005120986160685854
41.52,0.0050131160192825675
41.6,0.004876754558958158
41.68,0.004720081681330677
41.76,0.0045522438251775505
41.84,0.004382153000676509
41.92,0.004217546316708778
42.0,0.0040644509283281356
42.08,0.003927086644894954
42.160000000000004,0.0038081309829702875
42.24,0.003709196018151918
42.32,0.0036313369388011165
42.4,0.0035754290268467893
42.480000000000004,0.0035423032691487806
42.56,0.003532606281053713
42.64,0.003546431185078992
42.72,0.00358283535655108
42.800000000000004,0.0036394019347402856
42.88,0.0037120020766272157
42.96,0.0037948707153298653
43.04,0.0038810300748725723
43.12,0.003963004986722732
43.2,0.0040337001733410215
43.28,0.004087274544823426
43.36,0.0041198586830242835
43.44,0.00413000899299713
43.52,0.0041188535350747575
43.6,0.0040899374356095745
43.68,0.004048806654945126
43.76,0.004002378629013115
43.84,0.003958148961012951
43.92,0.003923289617490909
44.0,0.0039037140359980595
44.08,0.0039032145213536724
44.160000000000004,0.0039228034008499234
44.24,0.0039603942944448165
44.32,0.0040109310126677615
44.4,0.0040670069391068354
44.480000000000004,0.004119926716558342
44.56,0.004161062951630471
44.64,0.004183276556993642
44.72,0.0041821238635283454
44.800000000000004,0.004156586146390803
44.88,0.004109136744857734
44.96,0.004045099466114402
45.04,0.003971420694744562
45.12,0.0038951311160625394
45.2,0.0038218622939468257
45.28,0.0037547748075777987
45.36,0.0036941452221034288
45.44,0.0036376804191062383
45.52,0.003581435164957897
45.6,0.003521060696378437
45.68,0.0034530488882850326
45.76,0.0033756683357171174
45.84,0.0032893960928480435
45.92,0.0031967940674593708
46.0,0.0031019203173978
46.08,0.0030094684735260373
46.160000000000004,0.002923872741005017
46.24,0.0028485963567388174
46.32,0.0027857476562480853
46.4,0.0027360623072694885
46.480000000000004,0.0026991835390334333
46.56,0.0026740961645643595
46.64,0.002659547860655604
46.72,0.00265432758140444
46.800000000000004,0.00265734960401642
46.88,0.0026675795660829893
46.96,0.002683899616331281
47.04,0.002705019501437981
47.12,0.0027294983827240264
47.2,0.0027558714507514882
47.28,0.0027828118790247484
47.36,0.0028092339871588212
47.44,0.0028342699854053827
47.52,0.0028571175829004113
47.6,0.0028768275474992146
47.68,0.0028921438784107814
47.76,0.002901502341644928
47.84,0.0029032363690999208
47.92,0.0028959555073671678
48.0,0.002878985061569514
48.08,0.002852717302371313
48.160000000000004,0.0028187398017995823
48.24,0.0027796695836979947
48.32,0.0027387100974492727
48.4,0.002699031311653808
48.480000000000004,0.0026631249824397157
48.56,0.002632293242981268
48.64,0.0026063907032587708
48.72,0.0025838733387457957
48.800000000000004,0.002562133633439781
48.88,0.002538041571593999
48.96,0.0025085780193300627
49.04,0.0024714427932554656
49.120000000000005,0.0024255372210591104
49.2,0.002371249517913992
49.28,0.0023105023526824066
49.36,0.0022465526313550886
49.44,0.002183565364178991
49.52,0.0021260181916024634
49.6,0.0020780278552160088
49.68,0.0020427156791774474
49.76,0.002021734094918709
49.84,0.0020150519194314653
49.92,0.002021043424585145
50.0,0.0020368575893719987
50.08,0.002058979512444218
50.160000000000004,0.00208385594120555
50.24,0.0021084529781784794
50.32,0.0021306447973633985
50.4,0.00214938421733004
50.480000000000004,0.002164660310694129
50.56,0.0021772887408018186
50.64,0.002188599730778649
50.72,0.002200088566158675
50.800000000000004,0.002213082218771329
50.88,0.0022284613198275682
50.96,0.0022464640309161066
51.04,0.0022665879682847844
51.120000000000005,0.002287596762498333
51.2,0.0023076280711839363
51.28,0.0023243904457356974
51.36,0.0023354287310764586
51.44,0.002338432301489104
51.52,0.0023315565863675676
51.6,0.0023137244440524056
51.68,0.0022848694025492684
51.76,0.0022460794375600817
51.84,0.002199602036146806
51.92,0.002148683573268192
52.0,0.0020972408960655796
52.08,0.002049397951132074
52.160000000000004,0.0020089571956431306
52.24,0.0019789025042904907
52.32,0.001961035523816582
52.4,0.001955823989011748
52.480000000000004,0.0019624902428358806
52.56,0.0019793032396020135
52.64,0.0020039779513641217
52.72,0.0020340547372061594
52.800000000000004,0.0020671436499266043
52.88,0.0021009757289122428
52.96,0.0021332873720730002
53.04,0.002161642804123032
53.120000000000005,0.002183339008743567
53.2,0.002195515962067824
53.28,0.0021955160542272683
53.36,0.0021814295017475328
53.44,0.0021526710664132457
53.52,0.002110396506813535
53.6,0.0020576014490366343
53.68,0.0019988375359211155
53.76,0.001939594452758835
53.84,0.0018854892771924103
53.92,0.0018414464675828909
54.0,0.001811035875890635
54.08,0.0017960779629604432
54.160000000000004,0.0017965520652938856
54.24,0.0018107802216232199
54.32,0.001835819169559575
54.4,0.0018679767046719288
54.480000000000004,0.001903367417018225
54.56,0.0019384281606775683
54.64,0.0019703219620978213
54.72,0.0019971729981118564
54.800000000000004,0.0020180997228952313
54.88,0.0020330499995378374
54.96,0.00204248597176497
55.04,0.0020470053429741397
