Frequency,PSD
6.057142857142857,0.35535391210838985
6.171428571428571,0.34249119146982754
6.285714285714286,0.3231975003268786
6.3999999999999995,0.30721130792028467
6.514285714285714,0.30276343434496217
6.628571428571428,0.31265964262499607
6.742857142857143,0.3334981399575799
6.857142857142857,0.35810282928715187
6.9714285714285715,0.3792207095092137
7.085714285714285,0.3924742645992782
7.2,0.3977458091466457
7.314285714285714,0.3988086744942953
7.428571428571428,0.4011180411334606
7.542857142857143,0.40849443928806434
7.657142857142857,0.420753966648037
7.771428571428571,0.43421311351947256
7.885714285714285,0.4446870090579713
8.0,0.4504045170201122
8.114285714285714,0.4528204779550048
8.228571428571428,0.455645207701656
8.342857142857143,0.46328295495592664
8.457142857142857,0.47896873686907937
8.571428571428571,0.502976124773173
8.685714285714285,0.5325664983729722
8.799999999999999,0.5646330733841634
8.914285714285715,0.5987048133439545
9.028571428571428,0.636594742941174
9.142857142857142,0.678602733386485
9.257142857142856,0.7209966654654043
9.371428571428572,0.758979895069384
9.485714285714286,0.7931246328225308
9.6,0.8326337259378116
9.714285714285714,0.8918773376653921
9.828571428571427,0.9835008150999468
9.942857142857143,1.11277911576187
10.057142857142857,1.2733494819209175
10.17142857142857,1.4435905637893924
10.285714285714285,1.588413044998088
10.4,1.6718561994911754
10.514285714285714,1.6753551447760973
10.628571428571428,1.6073361330911644
10.742857142857142,1.4957529000325966
10.857142857142858,1.3703037529019721
10.971428571428572,1.2484104253230912
11.085714285714285,1.1329895098473313
11.2,1.0193675594207856
11.314285714285713,0.9033273919552687
11.428571428571429,0.7847155016220921
11.542857142857143,0.6668042701425139
11.657142857142857,0.5544573095066221
11.77142857142857,0.4526658647535219
11.885714285714286,0.3652231938945487
12.0,0.29374832235061255
12.114285714285714,0.2378060478524337
12.228571428571428,0.19580870113814594
12.342857142857142,0.16563755478921374
12.457142857142857,0.14482611496709943
12.571428571428571,0.13091167639652737
12.685714285714285,0.121910908166679
12.799999999999999,0.11632857077950287
12.914285714285715,0.11281679501727605
13.028571428571428,0.11021383185892225
13.142857142857142,0.1080232296390066
13.257142857142856,0.10655932837594248
13.371428571428572,0.10634043175539451
13.485714285714286,0.10728433446203214
13.6,0.10849389257764652
13.714285714285714,0.10876565700569979
13.828571428571427,0.10733302198740378
13.942857142857143,0.10433368245288024
14.057142857142857,0.10077962669632401
14.17142857142857,0.09800929678049708
14.285714285714285,0.09681591065573548
14.4,0.09680225263679071
14.514285714285714,0.09658610417030458
14.628571428571428,0.09484867731759167
14.742857142857142,0.0913767104662506
14.857142857142856,0.08720762379340147
14.971428571428572,0.08387545934015525
15.085714285714285,0.08253662961925462
15.2,0.08361187010687468
15.314285714285713,0.08691439770248979
15.428571428571429,0.09187587707858025
15.542857142857143,0.09761488328121638
15.657142857142857,0.10291705945286929
15.77142857142857,0.10644569714271841
15.885714285714284,0.10738880842318775
16.0,0.10616994476279004
16.114285714285714,0.10442318305410317
16.228571428571428,0.10393998851855978
16.34285714285714,0.10537104235242069
16.457142857142856,0.10781721382980028
16.57142857142857,0.10961021701117149
16.685714285714287,0.10954162628834772
16.8,0.10759275748373626
16.914285714285715,0.1048002511129832
17.02857142857143,0.10254077913371482
17.142857142857142,0.10175586098985753
17.257142857142856,0.10250099995336173
17.37142857142857,0.10396987500313531
17.485714285714284,0.1049785081972615
17.599999999999998,0.10470590186813337
17.714285714285715,0.10322067136970682
17.82857142857143,0.10131598818558471
17.942857142857143,0.09975751755868593
18.057142857142857,0.09872815789838307
18.17142857142857,0.09808622805577259
18.285714285714285,0.09807425330572492
18.4,0.09950887387850833
18.514285714285712,0.10301979407750121
18.628571428571426,0.10798315824690746
18.742857142857144,0.11226022412185224
18.857142857142858,0.11322015037687366
18.97142857142857,0.10935663042072045
19.085714285714285,0.10123964365179514
19.2,0.09117621916829784
19.314285714285713,0.08204936438118754
19.428571428571427,0.07616655151914017
19.54285714285714,0.07452001079383831
19.657142857142855,0.07652710826223084
19.771428571428572,0.08036548572456621
19.885714285714286,0.08390928055477437
20.0,0.08582456287603946
20.114285714285714,0.08612732857088301
20.228571428571428,0.08586388262437597
20.34285714285714,0.08623765452090987
20.457142857142856,0.08781638800852012
20.57142857142857,0.09019792639503017
20.685714285714287,0.09214772854033443
20.8,0.09212986626993616
20.914285714285715,0.08910460918010017
21.02857142857143,0.08322039056263245
21.142857142857142,0.075917718743727
21.257142857142856,0.0693077738073597
21.37142857142857,0.0651920887911104
21.485714285714284,0.06428575374122078
21.599999999999998,0.06602790907580064
21.714285714285715,0.06900059182921285
21.82857142857143,0.07162598076190228
21.942857142857143,0.07270744315067543
22.057142857142857,0.07164455622370097
22.17142857142857,0.0684886778337131
22.285714285714285,0.0639729482547868
22.4,0.05935513848408281
22.514285714285712,0.05591315361458262
22.628571428571426,0.05434209236093105
22.742857142857144,0.05453304904638902
22.857142857142858,0.055859241956235706
22.97142857142857,0.057575648719606895
23.085714285714285,0.058939759052197845
23.2,0.059160730368821676
23.314285714285713,0.05756394242654526
23.428571428571427,0.05401582910376446
23.54285714285714,0.049180511308502664
23.657142857142855,0.04424878500930629
23.771428571428572,0.04030008386399043
23.885714285714286,0.037776630305203986
24.0,0.03639048669717925
24.114285714285714,0.03545688184737178
24.228571428571428,0.03442703479144841
24.34285714285714,0.03327727136835555
24.457142857142856,0.03245791986039991
24.57142857142857,0.03243676244735699
24.685714285714283,0.03325780715440764
24.8,0.03451455165952897
24.914285714285715,0.03568215664587501
25.02857142857143,0.036406271612912176
25.142857142857142,0.036508540156210925
25.257142857142856,0.035870358388903484
25.37142857142857,0.03445987774801408
25.485714285714284,0.03250158754254916
25.599999999999998,0.030560262600606597
25.71428571428571,0.029379179092778394
25.82857142857143,0.0295294579376396
25.942857142857143,0.031080901855972693
26.057142857142857,0.03352492099168417
26.17142857142857,0.03604057097432114
26.285714285714285,0.03794289273408521
26.4,0.03899638163510359
26.514285714285712,0.039392119483117535
26.628571428571426,0.039480363251622866
26.742857142857144,0.039533248315569924
26.857142857142858,0.03970687741226345
26.97142857142857,0.040113557109593106
27.085714285714285,0.040813108294737194
27.2,0.04169108645559523
27.314285714285713,0.0423838761097271
27.428571428571427,0.04239897148952315
27.54285714285714,0.041391185796392435
27.657142857142855,0.03938907298554873
27.771428571428572,0.03678688457308709
27.885714285714286,0.03412442955831364
28.0,0.03185348648964582
28.114285714285714,0.030234376461320687
28.228571428571428,0.029330091956177303
28.34285714285714,0.0290207733970824
28.457142857142856,0.029052156505616177
28.57142857142857,0.02916038792443716
28.685714285714283,0.02922547531962824
28.8,0.029335687299608223
28.914285714285715,0.02970241533088317
29.02857142857143,0.030488341804508018
29.142857142857142,0.03166782310883887
29.257142857142856,0.03299521174528685
29.37142857142857,0.03409457745264628
29.485714285714284,0.03464112899382671
29.599999999999998,0.034544615263065355
29.71428571428571,0.033999052040195814
29.82857142857143,0.0333337207751993
29.942857142857143,0.03277467015950639
30.057142857142857,0.03232385678727319
30.17142857142857,0.03184821450622996
30.285714285714285,0.03125299645711407
30.4,0.030547656048238916
30.514285714285712,0.029773875969354643
30.628571428571426,0.02893603260042359
30.74285714285714,0.028038750874391095
30.857142857142858,0.02717011687278944
30.97142857142857,0.02650261885015057
31.085714285714285,0.02618189236368185
31.2,0.02620004670492199
31.314285714285713,0.026374260176335762
31.428571428571427,0.02646012524470361
31.54285714285714,0.026305908016754368
31.657142857142855,0.025916047001259282
31.77142857142857,0.02538338754063038
31.885714285714286,0.024772209675603864
32.0,0.024062853885256256
32.114285714285714,0.023195475360108412
32.22857142857143,0.02215894192189153
32.34285714285714,0.02103798109677396
32.457142857142856,0.019982163231780283
32.57142857142857,0.019145465538323966
32.68571428571428,0.018666621609907726
32.8,0.018681994903029294
32.91428571428571,0.019285339606547033
33.028571428571425,0.020402342478667547
33.14285714285714,0.021695239818257155
33.25714285714285,0.022653547572866216
33.371428571428574,0.022863071478987612
33.48571428571429,0.022247489045667646
33.6,0.021079134771209044
33.714285714285715,0.019764216259655704
33.82857142857143,0.018604478253007938
33.94285714285714,0.017726896016524427
34.05714285714286,0.017182229341888944
34.17142857142857,0.017052989718205767
34.285714285714285,0.017435853426859608
34.4,0.01831345253239262
34.51428571428571,0.01944567535071891
34.628571428571426,0.02040595342784203
34.74285714285714,0.020776794646247352
34.857142857142854,0.020378011043027215
34.97142857142857,0.019351299397939097
35.08571428571428,0.018036605315104284
35.199999999999996,0.01675938349771494
35.31428571428572,0.015713775517236333
35.42857142857143,0.014997417534599268
35.542857142857144,0.01467805294986165
35.65714285714286,0.014765333920124584
35.77142857142857,0.01512613163579304
35.885714285714286,0.01548910479499663
36.0,0.01558653891639853
36.114285714285714,0.015320337757644246
36.22857142857143,0.014824294692227251
36.34285714285714,0.014404006653015316
36.457142857142856,0.014400973999810017
36.57142857142857,0.015017335207684281
36.68571428571428,0.016157482515255495
36.8,0.017401485226665583
36.91428571428571,0.018195330964800863
37.028571428571425,0.01817515188156741
37.14285714285714,0.01739052023831532
37.25714285714285,0.01624786047328001
37.371428571428574,0.015234531368554117
37.48571428571429,0.014659229279898494
37.6,0.014575594310739716
37.714285714285715,0.014854260650203652
37.82857142857143,0.015276379236133869
37.94285714285714,0.015596943018757472
38.05714285714286,0.01561056450384685
38.17142857142857,0.015227684270472995
38.285714285714285,0.014508127175688362
38.4,0.01361656516492298
38.51428571428571,0.012737626330200605
38.628571428571426,0.012014565656319275
38.74285714285714,0.011534678130275257
38.857142857142854,0.011342262499330737
38.97142857142857,0.011454566171767523
39.08571428571428,0.011868738734132717
39.199999999999996,0.012555264003357883
39.31428571428571,0.013437950702994183
39.42857142857143,0.014373726479679425
39.542857142857144,0.01516156941711215
39.65714285714286,0.015603523139644408
39.77142857142857,0.015600761445927437
39.885714285714286,0.015224208744230049
40.0,0.014696906057605418
40.114285714285714,0.014278235148079932
40.22857142857143,0.014117585072458068
40.34285714285714,0.014183961842249208
40.457142857142856,0.014326197133510046
40.57142857142857,0.01440542546932053
40.68571428571428,0.014380808848597425
40.8,0.014291209775529853
40.91428571428571,0.014184992374086061
41.028571428571425,0.014080191227789578
41.14285714285714,0.013972161873170366
41.25714285714285,0.01384423003202307
41.371428571428574,0.013653823509450231
41.48571428571429,0.013327819731212684
41.6,0.012812652317067474
41.714285714285715,0.01215477779624594
41.82857142857143,0.011522363363197856
41.94285714285714,0.011121008760610038
42.05714285714286,0.011068483998887149
42.17142857142857,0.011336584595386232
42.285714285714285,0.01179229963414746
42.4,0.012277268289705816
42.51428571428571,0.01265859144844331
42.628571428571426,0.012845023732325135
42.74285714285714,0.012799410073742691
42.857142857142854,0.012556275505945715
42.97142857142857,0.012221430260639536
43.08571428571428,0.011937510018782616
43.199999999999996,0.011830243865915602
43.31428571428571,0.011962404209770476
43.42857142857143,0.012312524704107698
43.542857142857144,0.012786485584278185
43.65714285714286,0.013260497365275275
43.77142857142857,0.013633093774656733
43.885714285714286,0.013852246283156016
44.0,0.013906984846361197
44.114285714285714,0.013810791223016811
44.22857142857143,0.013608891400612538
44.34285714285714,0.01340074411076351
44.457142857142856,0.013329239928924937
44.57142857142857,0.01350816888842175
44.68571428571428,0.0139317932726166
44.8,0.014451830566261639
44.91428571428571,0.01485819770860869
45.028571428571425,0.015005870712144116
45.14285714285714,0.014888553495303089
45.25714285714285,0.014609067712967019
45.37142857142857,0.014283048029008795
45.48571428571429,0.013955787390143217
45.6,0.013587542446197821
45.714285714285715,0.01310921628844934
45.82857142857143,0.012506359224225327
45.94285714285714,0.011869296431545828
46.05714285714286,0.011365633757433168
46.17142857142857,0.011146370319708346
46.285714285714285,0.01124719641755338
46.4,0.011552998415511315
46.51428571428571,0.01185635216687176
46.628571428571426,0.011981453756132977
46.74285714285714,0.011891674080112572
46.857142857142854,0.011695221704034947
46.97142857142857,0.011538084343934392
47.08571428571428,0.011477275369195935
47.199999999999996,0.011451057849567877
47.31428571428571,0.011365780575190434
47.42857142857143,0.011201582930984534
47.542857142857144,0.011029990200824777
47.65714285714286,0.0109372614369589
47.77142857142857,0.010941990046115645
47.885714285714286,0.01098969642197872
48.0,0.011021227719616045
48.114285714285714,0.011041610148317636
48.22857142857143,0.011126210529839803
48.34285714285714,0.011366806928746519
48.457142857142856,0.011809612349522443
48.57142857142857,0.012429802794248712
48.68571428571428,0.01314632769145111
48.8,0.013866329635786084
48.91428571428571,0.01458596553150872
49.028571428571425,0.015618040438166307
49.14285714285714,0.018001951912621827
49.25714285714285,0.024018414322106663
49.37142857142857,0.03738044440395542
49.48571428571429,0.062193207874524176
49.6,0.09994887659569451
49.714285714285715,0.1456461084065313
49.82857142857143,0.18666772309244223
49.94285714285714,0.20769993746750456
50.05714285714286,0.19980423210932782
50.17142857142857,0.16646494664553382
50.285714285714285,0.12111688523215561
50.4,0.078496963917731
50.51428571428571,0.04726190521714779
50.628571428571426,0.028531781125080008
50.74285714285714,0.01898532749403197
50.857142857142854,0.014550398038484829
50.97142857142857,0.012355910453465818
51.08571428571428,0.010987827640856068
51.199999999999996,0.009992853758727532
51.31428571428571,0.009321685281685144
51.42857142857142,0.008973816950834768
51.542857142857144,0.008869130902115377
51.65714285714286,0.008871019064540365
51.77142857142857,0.008856798085300596
51.885714285714286,0.008763862804248249
52.0,0.008599788643049546
52.114285714285714,0.008436227880938249
52.22857142857143,0.00839359998898969
52.34285714285714,0.008602076081790443
52.457142857142856,0.009132495800283268
52.57142857142857,0.009925914752529378
52.68571428571428,0.010776935507083082
52.8,0.011407921224023478
52.91428571428571,0.0116063057892532
53.028571428571425,0.011338138729203306
53.14285714285714,0.010762469966502384
53.25714285714285,0.010145442771710292
53.37142857142857,0.009734566285502462
53.48571428571429,0.009659331011649083
53.6,0.00989764009108546
53.714285714285715,0.010315083218007878
53.82857142857143,0.010748428031402751
53.94285714285714,0.011080563454050002
54.05714285714286,0.011267936804624117
54.17142857142857,0.011325602476726529
54.285714285714285,0.011304049989484479
54.4,0.011278764806070762
54.51428571428571,0.01134232113863301
54.628571428571426,0.011578982824864432
54.74285714285714,0.01201986549945429
54.857142857142854,0.012601937008054082
54.97142857142857,0.013166299151852927
55.08571428571428,0.013516607802864442
