Frequency,PSD
6.0,0.3691174044452719
6.08,0.36919144339426474
6.16,0.3692294351641979
6.24,0.36910802909643137
6.32,0.3688271105060035
6.4,0.3686023303126451
6.48,0.3688490996614163
6.5600000000000005,0.37004972478601683
6.640000000000001,0.3725605265236932
6.72,0.3764548063762164
6.8,0.38148567924373333
6.88,0.3871909104678842
6.96,0.39308134021015906
7.04,0.3988044803325014
7.12,0.4041928761865757
7.2,0.40918815046078083
7.28,0.4137237816940073
7.36,0.41768419833924564
7.44,0.4210019858724797
7.5200000000000005,0.4238426676739021
7.6000000000000005,0.426738299219544
7.68,0.4305358339363392
7.76,0.4361284764548323
7.84,0.44407389629446875
7.92,0.4542849791164241
8.0,0.46595560688712223
8.08,0.4777708943114277
8.16,0.4883145814246021
8.24,0.4964994519954031
8.32,0.5018492127084158
8.4,0.5045412100246731
8.48,0.5052297234778733
8.56,0.5047528201535177
8.64,0.5038479889987627
8.72,0.5029659759688803
8.8,0.5022102834462915
8.88,0.5013792803816837
8.96,0.5000696595756461
9.040000000000001,0.49780984349781787
9.120000000000001,0.4942085232480471
9.200000000000001,0.4891051958619568
9.28,0.4826904355097808
9.36,0.47554036242582476
9.44,0.4685129791564982
9.52,0.4625043218775826
9.6,0.4581451669282749
9.68,0.4555824369003113
9.76,0.4544770064684889
9.84,0.45424830217356965
9.92,0.45445794789967414
10.0,0.4551364461583781
10.08,0.45687731690947764
10.16,0.4606396794275731
10.24,0.4673409949488385
10.32,0.4774099597029486
10.4,0.4904733198533661
10.48,0.5052887956678624
10.56,0.5199492804379293
10.64,0.5323005752738869
10.72,0.5404498312009475
10.8,0.5432062325812064
10.88,0.5403066114389903
10.96,0.5323479528986809
11.040000000000001,0.5204617847156368
11.120000000000001,0.5058767273399976
11.200000000000001,0.48956729429110923
11.28,0.47214304318161476
11.36,0.4540045242074766
11.44,0.43564364291913676
11.52,0.4178796285738745
11.6,0.4018541649305235
11.68,0.3887501236103331
11.76,0.3793692134754105
11.84,0.3738020499102885
11.92,0.3713873652025523
12.0,0.37100447395120395
12.08,0.3715635122881333
12.16,0.3724539335138308
12.24,0.37373825878348416
12.32,0.37601473557340637
12.4,0.3800413041656559
12.48,0.3863249821090092
12.56,0.39488157437410554
12.64,0.405265812071547
12.72,0.41682022201186175
12.8,0.42897379640080546
12.88,0.44140208851633933
12.96,0.4539496551292385
13.040000000000001,0.4663640088637841
13.120000000000001,0.47801215505041744
13.200000000000001,0.4877739471598277
13.280000000000001,0.4942151669726573
13.36,0.495989328775617
13.44,0.49228951774960983
13.52,0.4831419238768977
13.6,0.4694134071597066
13.68,0.4525448849787028
13.76,0.4341405397254675
13.84,0.4155814524311912
13.92,0.39778621062914193
14.0,0.3811529916023531
14.08,0.3656435004003166
14.16,0.35094152372989496
14.24,0.33663279827706166
14.32,0.3223793308112636
14.4,0.30807360132207134
14.48,0.29395079326066115
14.56,0.2806254415446499
14.64,0.26902220308595454
14.72,0.260195883785896
14.8,0.2550734296949571
14.88,0.25418247925993215
14.96,0.2574441626630131
15.040000000000001,0.26409861501775833
15.120000000000001,0.2728023914210932
15.200000000000001,0.281891500254054
15.280000000000001,0.2897499354474451
15.36,0.295178176664752
15.44,0.2976423165885077
15.52,0.2973181154688085
15.6,0.29491870660018704
15.68,0.2913786308136592
15.76,0.2875202466202236
15.84,0.28382545840747225
15.92,0.28037905713040806
16.0,0.2769693392463923
16.080000000000002,0.27326737870755297
16.16,0.26898880074240733
16.240000000000002,0.2639756917352849
16.32,0.2581969662833737
16.4,0.2517136728483658
16.48,0.24466202117037156
16.56,0.23727207489107144
16.64,0.22989385894539915
16.72,0.22298147762794027
16.8,0.21700596857889995
16.88,0.21231473377213259
16.96,0.20899709894739837
17.04,0.2068247867858482
17.12,0.20530737304622448
17.2,0.20385221528865693
17.28,0.20197147623841508
17.36,0.1994570210726314
17.44,0.1964557891727884
17.52,0.19341774203485368
17.6,0.1909382947462252
17.68,0.18955593658643294
17.76,0.18957798607099208
17.84,0.19099064049628972
17.92,0.1934744386919705
18.0,0.19650965010724805
18.080000000000002,0.19953108153384527
18.16,0.20208288522307324
18.240000000000002,0.2039287536928208
18.32,0.2050873054222903
18.400000000000002,0.20578407365901827
18.48,0.20633800660966106
18.56,0.2070253897435602
18.64,0.20797611972485947
18.72,0.20914576038637403
18.8,0.21037213159284307
18.88,0.21148311857291974
18.96,0.21239674579145165
19.04,0.21316127070084206
19.12,0.21391820463296796
19.2,0.21481318112786957
19.28,0.21590421939674126
19.36,0.217113142775789
19.44,0.21824070098383197
19.52,0.21903606279209412
19.6,0.21929059799807596
19.68,0.21891862798335987
19.76,0.2179920295020118
19.84,0.2167092181015838
19.92,0.2153018423514029
20.0,0.21391098011218962
20.080000000000002,0.2124871246255032
20.16,0.21076864143778765
20.240000000000002,0.2083633731497714
20.32,0.20490813443358416
20.400000000000002,0.20023774041592612
20.48,0.19448516712801636
20.56,0.1880647522301062
20.64,0.18154466301701216
20.72,0.17546497449719156
20.8,0.17018056076020718
20.88,0.16579533738507932
20.96,0.1622126160257269
21.04,0.15927256152846336
21.12,0.1569052757796306
21.2,0.15521862613825116
21.28,0.1544718702571009
21.36,0.1549454119076874
21.44,0.15677192511477478
21.52,0.15981377290879575
21.6,0.163646284387364
21.68,0.16765305737718567
21.76,0.17118910183891695
21.84,0.17374475070094708
21.92,0.1750528183526194
22.0,0.17511149827176234
22.080000000000002,0.17412894990557326
22.16,0.17242035746178452
22.240000000000002,0.17029930609463564
22.32,0.1680015747539455
22.400000000000002,0.16566255810096736
22.48,0.1633453450522127
22.56,0.16109519211279733
22.64,0.1589877952778856
22.72,0.1571467246162156
22.8,0.1557236804228409
22.88,0.15485286911451135
22.96,0.15459933259615846
23.04,0.1549192624110809
23.12,0.1556429870825203
23.2,0.1564843818620537
23.28,0.15707671283278635
23.36,0.15703302060580687
23.44,0.1560256452851111
23.52,0.15387231688247552
23.6,0.1506071786371719
23.68,0.14650979455198196
23.76,0.1420700002411175
23.84,0.1378839159609179
23.92,0.13450203716143036
24.0,0.13227336000281165
24.080000000000002,0.13123816425322174
24.16,0.13110987096396282
24.240000000000002,0.13135626555509314
24.32,0.13135413279859248
24.400000000000002,0.13056454211348067
24.48,0.12867061556112278
24.560000000000002,0.12563786743849842
24.64,0.12169011261621238
24.72,0.11722559608971889
24.8,0.11271392081966829
24.88,0.10860910146721561
24.96,0.10529377821616107
25.04,0.10304812917022511
25.12,0.10202771971598247
25.2,0.10224217253047624
25.28,0.10354373343189822
25.36,0.10564630230989082
25.44,0.10818889171341975
25.52,0.11083336648679382
25.6,0.1133596879517227
25.68,0.11571234831226543
25.76,0.11796935484700724
25.84,0.12024283872575348
25.92,0.12255775495757879
26.0,0.12477101479664077
26.080000000000002,0.12657775197920057
26.16,0.1276105864684441
26.240000000000002,0.1275911685468126
26.32,0.1264643222690959
26.400000000000002,0.12444952641856574
26.48,0.12198159105937276
26.560000000000002,0.11956407436801017
26.64,0.11759870767310082
26.72,0.11626189699079763
26.8,0.11547340214161048
26.88,0.11495896440646272
26.96,0.11437133464094443
27.04,0.11341884776812619
27.12,0.11195862296187949
27.2,0.11003238185307937
27.28,0.10784438292039772
27.36,0.10569596210711546
27.44,0.10389881527101516
27.52,0.10269124270931954
27.6,0.1021790519854414
27.68,0.10231553443364338
27.76,0.10292362383852821
27.84,0.10375096605743256
27.92,0.10453942487413258
28.0,0.10508774692875458
28.080000000000002,0.10529025667072546
28.16,0.10514356437087513
28.240000000000002,0.10472411453617285
28.32,0.10414861375778778
28.400000000000002,0.10353397561260941
28.48,0.10297147233847519
28.560000000000002,0.10252165938632223
28.64,0.10222581202859919
28.72,0.10212141858721888
28.8,0.1022478291746952
28.88,0.10263387178427201
28.96,0.10326908197615031
29.04,0.10406997776860209
29.12,0.10485900589251032
29.2,0.10537360997323278
29.28,0.10531450821205868
29.36,0.1044267056553768
29.44,0.10258966953285133
29.52,0.09988332490748317
29.6,0.09660076667750274
29.68,0.09319620664548106
29.76,0.09017969216777802
29.84,0.0879885006022357
29.92,0.08687265178795567
30.0,0.08682813316382229
30.080000000000002,0.08759875918793789
30.16,0.08874895158686655
30.240000000000002,0.08978837435072262
30.32,0.09031084526891237
30.400000000000002,0.09010213545767437
30.48,0.08918036274714158
30.560000000000002,0.08775776730080752
30.64,0.0861437185707015
30.72,0.08463112734641623
30.8,0.08341111667666612
30.88,0.08254343681541121
30.96,0.08198277769876453
31.04,0.08163783553964099
31.12,0.08143051851583158
31.2,0.08132854270142739
31.28,0.08134068857762367
31.36,0.08148252708307452
31.44,0.08173444986462944
31.52,0.08201794666519908
31.6,0.08220757681502261
31.68,0.082177368787184
31.76,0.08186022795088133
31.84,0.081289215752451
31.92,0.08059756571708215
32.0,0.07997624039876715
32.08,0.0796100743165909
32.160000000000004,0.0796219844957512
32.24,0.08004523232536168
32.32,0.0808249203035883
32.4,0.08183593869883152
32.480000000000004,0.0829039381826585
32.56,0.08382560008699592
32.64,0.08439371253476585
32.72,0.08443226850033791
32.8,0.08383698996663311
32.88,0.08260602923895881
32.96,0.08084412563920843
33.04,0.07873437752298945
33.12,0.07648861350409658
33.2,0.07429872477109777
33.28,0.07230922924827415
33.36,0.07061698731316146
33.44,0.06928700877051834
33.52,0.06836495022881973
33.6,0.06787230114856085
33.68,0.06778507048199413
33.76,0.0680107091524719
33.84,0.06838209676417144
33.92,0.06867981103758386
34.0,0.068679951194024
34.08,0.06821247700989558
34.160000000000004,0.06720978984952218
34.24,0.06572811750955841
34.32,0.06393318975653316
34.4,0.06205377294492677
34.480000000000004,0.06031840497101161
34.56,0.058897749541407515
34.64,0.057873217508582035
34.72,0.0572410948748183
34.800000000000004,0.05694524898654616
34.88,0.05691926625718588
34.96,0.057117464197521894
35.04,0.05752356126805361
35.12,0.05813906623423009
35.2,0.05896247573538413
35.28,0.05997141132005135
35.36,0.06111501195634128
35.44,0.062317853957161794
35.52,0.06349237801219845
35.6,0.06455447892335528
35.68,0.06543595040992525
35.76,0.0660883860653535
35.84,0.06647705322065448
35.92,0.0665696571064129
36.0,0.0663303187345467
36.08,0.06572871775893387
36.160000000000004,0.06476596848906901
36.24,0.06350578354691
36.32,0.06209012675878611
36.4,0.06072107340805145
36.480000000000004,0.05960670815086981
36.56,0.05889084435660081
36.64,0.058600532753937846
36.72,0.05864103928989124
36.800000000000004,0.05884538718873948
36.88,0.05905675260193409
36.96,0.059203708041541125
37.04,0.05933128738475414
37.12,0.05957329469586199
37.2,0.06008047254021379
37.28,0.060939596113903476
37.36,0.06212084804365857
37.44,0.06347575333853858
37.52,0.06478448193435411
37.6,0.06583080126864471
37.68,0.06647352061681712
37.76,0.06668715359731273
37.84,0.06655855092938559
37.92,0.06624407413609561
38.0,0.0659065638149311
38.08,0.06565760675999636
38.160000000000004,0.06552643988288635
38.24,0.06546438710403668
38.32,0.0653785853919283
38.4,0.065177520388159
38.480000000000004,0.06480805078204507
38.56,0.06426953077244768
38.64,0.06360196107037919
38.72,0.06285679014649573
38.800000000000004,0.06206651685806918
38.88,0.06122968929160636
38.96,0.060320553591408095
39.04,0.05931982220520559
39.12,0.058250460996183175
39.2,0.05719712230394066
39.28,0.056294229724350414
39.36,0.05568361322575441
39.44,0.055459488153065395
39.52,0.055626458939894714
39.6,0.056090179153869275
39.68,0.0566839458886422
39.76,0.05721771321209861
39.84,0.057528296159772785
39.92,0.05751392403747316
40.0,0.05714788767628837
40.08,0.05647609579209474
40.160000000000004,0.05560582844266068
40.24,0.05468843820462397
40.32,0.05389332136082266
40.4,0.05337061159576068
40.480000000000004,0.05320725238104138
40.56,0.05339052612554324
40.64,0.053796953973350194
40.72,0.054217773798627425
40.800000000000004,0.054416845103948897
40.88,0.05420086084305899
40.96,0.05347442461146101
41.04,0.0522585510091151
41.12,0.05066770815826181
41.2,0.04885913407967486
41.28,0.04697939364277155
41.36,0.0451316606518529
41.44,0.04337435981993591
41.52,0.04174473974710002
41.6,0.04028880916086965
41.68,0.039078070918953274
41.76,0.03820346807598106
41.84,0.03775144523288333
41.92,0.03777711084589315
42.0,0.03828930286883788
42.08,0.039252805339249845
42.160000000000004,0.040601045854506995
42.24,0.04224671700383168
42.32,0.04408193688240493
42.4,0.045970607408442804
42.480000000000004,0.047745259098328344
42.56,0.04922126270481478
42.64,0.050231361497038565
42.72,0.050669067009637775
42.800000000000004,0.050520284556333006
42.88,0.049865450063328404
42.96,0.048848626522105754
43.04,0.04762714132577471
43.12,0.04632502831722809
43.2,0.045010060954989536
43.28,0.04370019157952311
43.36,0.042389737812715066
43.44,0.04107775134325964
43.52,0.03978394087016099
43.6,0.03854745207914383
43.68,0.037413535138773435
43.76,0.03641754915413557
43.84,0.03557457062858039
43.92,0.03487901493420087
44.0,0.03431472400851323
44.08,0.03387233537263025
44.160000000000004,0.033567014626169525
44.24,0.03344693207889739
44.32,0.0335840701208749
44.4,0.034045974508114446
44.480000000000004,0.03485780497486701
44.56,0.03597236948459777
44.64,0.03726542860000785
44.72,0.03856285606425425
44.800000000000004,0.03969038401193721
44.88,0.040524679093514565
44.96,0.041023504073918846
45.04,0.04122327798505428
45.12,0.04120824652894001
45.2,0.04106790414851143
45.28,0.040862294879077235
45.36,0.04060822810115586
45.44,0.040288045308188684
45.52,0.039872522581229086
45.6,0.03934498637292326
45.68,0.03871562139860897
45.76,0.038021347954632856
45.84,0.03731420256708076
45.92,0.03664639797834487
46.0,0.036060742477547966
46.08,0.03559062079987471
46.160000000000004,0.03526675750575517
46.24,0.03512279303273919
46.32,0.03519196720538503
46.4,0.03549330619965921
46.480000000000004,0.03601392504786112
46.56,0.03669866674880431
46.64,0.03745553217417936
46.72,0.038176419118302156
46.800000000000004,0.03876337138989154
46.88,0.039147300900436846
46.96,0.03929140175152662
47.04,0.039181652867314856
47.12,0.038814821016577725
47.2,0.038194754098713035
47.28,0.0373405183729444
47.36,0.03630036756341512
47.44,0.035160191454785356
47.52,0.03403725629923153
47.6,0.0330579407185006
47.68,0.032326785637930844
47.76,0.031898828277598795
47.84,0.031766047476438734
47.92,0.03186306732220794
48.0,0.03208996088547579
48.08,0.03234398842525964
48.160000000000004,0.0325493563716705
48.24,0.032675284399127424
48.32,0.032737225341355376
48.4,0.0327822826313821
48.480000000000004,0.032865356613028335
48.56,0.033025208277320445
48.64,0.03326857645532928
48.72,0.03356657355623148
48.800000000000004,0.033862908848031587
48.88,0.03409010311383079
48.96,0.034188618544714965
49.04,0.03412421894172533
49.120000000000005,0.033899866469901854
49.2,0.03355950348738926
49.28,0.033182355493931726
49.36,0.03286829692745234
49.44,0.032717174195550855
49.52,0.03280689311438295
49.6,0.03317550208931891
49.68,0.03381108212797215
49.76,0.034650773318697585
49.84,0.03558818492467391
49.92,0.03648773167366338
50.0,0.03720472410796364
50.08,0.03760989776214013
50.160000000000004,0.03761547668200772
50.24,0.037197419654033226
50.32,0.03640711362491322
50.4,0.035367135856656
50.480000000000004,0.03424982897337312
50.56,0.03324266870199466
50.64,0.03250858267118789
50.72,0.03215100336258144
50.800000000000004,0.03219213825216332
50.88,0.03256932348853987
50.96,0.03314965129082259
51.04,0.03375879094253334
51.120000000000005,0.034217148788988475
51.2,0.03437554621663011
51.28,0.03414315501771373
51.36,0.03350221659115984
51.44,0.03250699353049239
51.52,0.03126813537028156
51.6,0.02992716586091156
51.68,0.02862776423916861
51.76,0.027490261235960343
51.84,0.026593916395862206
51.92,0.025969346743240924
52.0,0.025601655869996985
52.08,0.025443117979987336
52.160000000000004,0.02543226452063955
52.24,0.025514274039733047
52.32,0.025656841699168344
52.4,0.0258570604094672
52.480000000000004,0.02613785717243215
52.56,0.026535733231006515
52.64,0.027083684254522417
52.72,0.027794067718029638
52.800000000000004,0.028646431794536607
52.88,0.02958506257044524
52.96,0.030529318258156975
53.04,0.031395650532315876
53.120000000000005,0.032124208581830266
53.2,0.0326982090120642
53.28,0.03314484577599866
53.36,0.033514072707306025
53.44,0.033843184760825144
53.52,0.034124250358280976
53.6,0.03429209223624955
53.68,0.03424138186753966
53.76,0.03386712516734547
53.84,0.033111151221104335
53.92,0.0319943441848006
54.0,0.03062131562118324
54.08,0.02915670501879343
54.160000000000004,0.02778364508408726
54.24,0.026660060617984604
54.32,0.025886394525530685
54.4,0.02549182656005472
54.480000000000004,0.025439075436109293
54.56,0.0256431153389855
54.64,0.025997016237496243
54.72,0.02639778165448241
54.800000000000004,0.026765852620331747
54.88,0.02705394602875113
54.96,0.027244250899533785
55.04,0.027337056087772503
