Frequency,PSD
6.0,0.4907817662621783
6.08,0.4911234363256204
6.16,0.49181810799111764
6.24,0.49288565061814565
6.32,0.4943486164904367
6.4,0.4962231516852018
6.48,0.49850714673417273
6.5600000000000005,0.5011672155145778
6.640000000000001,0.5041273142289852
6.72,0.5072626281385726
6.8,0.5104022755492663
6.88,0.5133431469814668
6.96,0.5158749134163645
7.04,0.5178133806784759
7.12,0.5190366850719326
7.2,0.5195171235623661
7.28,0.5193413062055645
7.36,0.5187130307261982
7.44,0.517936538283859
7.5200000000000005,0.5173818965247393
7.6000000000000005,0.5174381821901088
7.68,0.518462906155833
7.76,0.5207370130758826
7.84,0.5244335452464514
7.92,0.5296049871074509
8.0,0.5361901783434943
8.08,0.5440375379044847
8.16,0.5529381940700362
8.24,0.5626611846812689
8.32,0.5729834120910475
8.4,0.5837092215169906
8.48,0.5946776203762045
8.56,0.6057583833105709
8.64,0.6168407797201415
8.72,0.6278198928157998
8.8,0.6385853420169257
8.88,0.6490159180442323
8.96,0.6589816837163218
9.040000000000001,0.6683530479947519
9.120000000000001,0.6770146659854991
9.200000000000001,0.6848810509378843
9.28,0.6919105981404352
9.36,0.6981152362084717
9.44,0.7035639473883072
9.52,0.7083796866253523
9.6,0.7127305131259721
9.68,0.716816774063077
9.76,0.720856738225349
9.84,0.7250730423037883
9.92,0.7296816829954084
10.0,0.7348842089393542
10.08,0.7408625129872987
10.16,0.7477745448625334
10.24,0.7557486868585717
10.32,0.7648746792050956
10.4,0.7751898852352554
10.48,0.7866611867359197
10.56,0.7991645664118231
10.64,0.812466045957566
10.72,0.8262086908960071
10.8,0.8399105545765313
10.88,0.852977570617171
10.96,0.864733572321432
11.040000000000001,0.8744670654020361
11.120000000000001,0.8814914991154141
11.200000000000001,0.8852130447132764
11.28,0.8851977811372822
11.36,0.8812291236689916
11.44,0.8733465991317861
11.52,0.8618587747683443
11.6,0.847326170985927
11.68,0.8305139847021967
11.76,0.8123188678972221
11.84,0.7936781511593755
11.92,0.7754730422151968
12.0,0.7584388261588936
12.08,0.7430945412143365
12.16,0.7297019422628971
12.24,0.7182591396596631
12.32,0.7085288374165393
12.4,0.7000955764028983
12.48,0.6924418604661207
12.56,0.6850303807106267
12.64,0.6773792506848008
12.72,0.669119216969153
12.8,0.6600257129862698
12.88,0.6500235114337282
12.96,0.6391665911028375
13.040000000000001,0.6275997536504683
13.120000000000001,0.6155108838512036
13.200000000000001,0.6030833105449396
13.280000000000001,0.5904566383399504
13.36,0.5777021015006216
13.44,0.5648154948378915
13.52,0.5517276138064523
13.6,0.5383293430563068
13.68,0.5245063877413289
13.76,0.5101773307849582
13.84,0.4953283043132156
13.92,0.4800380917956456
14.0,0.46448887163084324
14.08,0.4489599392651599
14.16,0.43380437105925673
14.24,0.41941137604752654
14.32,0.4061595881344626
14.4,0.394368320591197
14.48,0.3842544476644715
14.56,0.3759018844230053
14.64,0.3692486553518382
14.72,0.36409360588131484
14.8,0.36012147796387445
14.88,0.35694200682906063
14.96,0.35413651677241725
15.040000000000001,0.35130461527997564
15.120000000000001,0.3481041247098444
15.200000000000001,0.34427914900521983
15.280000000000001,0.33967369541622094
15.36,0.3342309768301157
15.44,0.3279808515071136
15.52,0.321019409367116
15.6,0.3134853091135411
15.68,0.30553715814752186
15.76,0.29733522696676795
15.84,0.28902940197050936
15.92,0.28075380225000857
16.0,0.2726271568646338
16.080000000000002,0.2647570263322153
16.16,0.257245360690709
16.240000000000002,0.2501927758295234
16.32,0.24369931702298772
16.4,0.237860325193016
16.48,0.23275721267485158
16.56,0.2284442916051454
16.64,0.22493401410655753
16.72,0.22218379830840174
16.8,0.2200878015212805
16.88,0.2184764570216902
16.96,0.21712537212573116
17.04,0.21577351247022875
17.12,0.21414880737299885
17.2,0.2119977803785858
17.28,0.20911486615995983
17.36,0.20536692460077588
17.44,0.2007091411109281
17.52,0.19518987179315106
17.6,0.1889437778197831
17.68,0.18217444690315493
17.76,0.17512927674818168
17.84,0.16807042688586699
17.92,0.16124598684789448
18.0,0.15486515813934054
18.080000000000002,0.14908033073164387
18.16,0.1439776661446953
18.240000000000002,0.1395764291385951
18.32,0.13583607368529438
18.400000000000002,0.13266916568880105
18.48,0.12995771574815163
18.56,0.1275704174154657
18.64,0.1253785834755186
18.72,0.12326913470446935
18.8,0.1211536845013614
18.88,0.11897344089936948
18.96,0.1167002030356239
19.04,0.11433409660092832
19.12,0.11189886186504265
19.2,0.10943551854455315
19.28,0.10699515470783037
19.36,0.10463149477220321
19.44,0.10239384107492734
19.52,0.10032095865239517
19.6,0.0984364479921735
19.68,0.09674607116431924
19.76,0.0952373206662521
19.84,0.09388124428338036
19.92,0.0926362087455175
20.0,0.09145298145201347
20.080000000000002,0.0902803203254855
20.16,0.08907024518047432
20.240000000000002,0.08778232491224809
20.32,0.08638660200278521
20.400000000000002,0.08486510034280555
20.48,0.08321212979720266
20.56,0.08143374377853048
20.64,0.07954670379431157
20.72,0.07757718577781164
20.8,0.07555928939516864
20.88,0.07353325618861095
20.96,0.07154322488008803
21.04,0.06963438249019249
21.12,0.0678495029927572
21.2,0.06622506469415133
21.28,0.06478734674752672
21.36,0.06354906168986264
21.44,0.06250713149701739
21.52,0.06164212911035767
21.6,0.06091968749058098
21.68,0.060293860313666486
21.76,0.05971206721005698
21.84,0.05912095081877329
21.92,0.05847228607943677
22.0,0.05772806180821995
22.080000000000002,0.05686400902917797
22.16,0.05587114553110291
22.240000000000002,0.054755273739661166
22.32,0.05353472586292468
22.400000000000002,0.05223691970742301
22.48,0.050894419788039956
22.56,0.04954117730065856
22.64,0.048209471814306924
22.72,0.046927846697173856
22.8,0.04572008014070768
22.88,0.044605020072930796
22.96,0.043596972986294655
23.04,0.04270628977324853
23.12,0.04193983060531679
23.2,0.041301094702213506
23.28,0.040789940564073125
23.36,0.04040196756381595
23.44,0.040127753287537246
23.52,0.03995222036804527
23.6,0.0398544261528714
23.68,0.0398080214765786
23.76,0.039782515535568275
23.84,0.03974533020778841
23.92,0.03966445953359628
24.0,0.03951140646807589
24.080000000000002,0.039263985872635444
24.16,0.03890858404106308
24.240000000000002,0.03844155361761191
24.32,0.037869577172620274
24.400000000000002,0.03720901238741621
24.48,0.03648438896987011
24.560000000000002,0.03572632223208387
24.64,0.034969121972560246
24.72,0.034248316606531715
24.8,0.033598214497706405
24.88,0.033049533128836836
24.96,0.03262708452774683
25.04,0.03234753539457838
25.12,0.03221735687823816
25.2,0.032231207120665246
25.28,0.032371095677706026
25.36,0.03260670718593196
25.44,0.03289717441650737
25.52,0.03319438359223871
25.6,0.033447602209231556
25.68,0.03360890931966341
25.76,0.03363866366987345
25.84,0.03351014126267497
25.92,0.03321255400016823
26.0,0.03275192098548614
26.080000000000002,0.032149650592365714
26.16,0.03143911518301463
26.240000000000002,0.03066086033355315
26.32,0.029857302479572752
26.400000000000002,0.02906778947415388
26.48,0.028324735939091253
26.560000000000002,0.027651254913529558
26.64,0.0270603729476703
26.72,0.026555623229188398
26.8,0.026132623269924108
26.88,0.025781184076883075
26.96,0.025487549990950008
27.04,0.025236486861116632
27.12,0.025013065918925558
27.2,0.024804087450636145
27.28,0.024599132360687156
27.36,0.02439122838358767
27.44,0.024177097774544132
27.52,0.023956946529489348
27.6,0.023733783600363417
27.68,0.023512325209401476
27.76,0.02329762736298849
27.84,0.02309366942223129
27.92,0.02290215251929962
28.0,0.02272175869083414
28.080000000000002,0.02254803752458738
28.16,0.022373962980049178
28.240000000000002,0.02219106304591483
28.32,0.021990902490813882
28.400000000000002,0.021766622673582356
28.48,0.021514228975010395
28.560000000000002,0.021233367859537812
28.64,0.02092743979069708
28.72,0.020603028694476288
28.8,0.020268765613508984
28.88,0.019933856127992117
28.96,0.019606565897898616
29.04,0.01929296353400559
29.12,0.01899616399074964
29.2,0.018716210133294806
29.28,0.01845059680226979
29.36,0.01819530852291302
29.44,0.0179461372344594
29.52,0.01769999225790389
29.6,0.017455922103531033
29.68,0.017215633678181994
29.76,0.016983402982475596
29.84,0.016765397614583902
29.92,0.016568547864009985
30.0,0.016399186436634045
30.080000000000002,0.01626171249474065
30.16,0.016157520623368598
30.240000000000002,0.016084377006577572
30.32,0.01603633847752369
30.400000000000002,0.01600421354966035
30.48,0.015976475865102993
30.560000000000002,0.015940474069811687
30.64,0.015883747129172756
30.72,0.01579525384658231
30.8,0.015666357294465392
30.88,0.015491461166127726
30.96,0.015268263760000948
31.04,0.014997662339216386
31.12,0.014683392468195977
31.2,0.014331513687311644
31.28,0.01394985070330911
31.36,0.013547471533468584
31.44,0.013134240573438804
31.52,0.012720438953199126
31.6,0.012316410316883058
31.68,0.011932176935027364
31.76,0.011576981986974134
31.84,0.011258745040986434
31.92,0.01098345974440803
32.0,0.010754603399174438
32.08,0.010572656016896165
32.160000000000004,0.010434833668713863
32.24,0.010335124544863237
32.32,0.010264678425957727
32.4,0.010212547888073051
32.480000000000004,0.010166721961025454
32.56,0.010115340611728616
32.64,0.010047941109911534
32.72,0.009956572543326004
32.8,0.00983662633780694
32.88,0.00968726787239774
32.96,0.009511411569450463
33.04,0.009315249406611286
33.12,0.009107408403409673
33.2,0.008897864130358913
33.28,0.008696765407501026
33.36,0.0085133259664178
33.44,0.008354913907089586
33.52,0.008226426670081164
33.6,0.008129988606609859
33.68,0.008064960993858096
33.76,0.008028218883061586
33.84,0.008014629445281357
33.92,0.008017661677988395
34.0,0.00803006295606379
34.08,0.008044547841778453
34.160000000000004,0.00805445337771068
34.24,0.008054319794327719
34.32,0.008040356386754328
34.4,0.008010752237291884
34.480000000000004,0.007965794853692016
34.56,0.007907770582767577
34.64,0.007840640636984397
34.72,0.007769514401406127
34.800000000000004,0.007699972910506149
34.88,0.007637323433312413
34.96,0.00758588403633996
35.04,0.007548399414231126
35.12,0.007525673925606508
35.2,0.007516476295074112
35.28,0.007517728177571498
35.36,0.007524943593035425
35.44,0.007532846742911103
35.52,0.00753606934064905
35.6,0.007529819945392258
35.68,0.007510427787503797
35.76,0.007475689407855615
35.84,0.007424982434893824
35.92,0.007359149916776893
36.0,0.007280193925515101
36.08,0.00719084329231035
36.160000000000004,0.007094074217316412
36.24,0.0069926633618416015
36.32,0.006888842030544793
36.4,0.006784099636319607
36.480000000000004,0.006679158044654486
36.56,0.006574109357442066
36.64,0.006468682341300244
36.72,0.006362581322443139
36.800000000000004,0.006255829875679592
36.88,0.006149052667451041
36.96,0.0060436427079951565
37.04,0.005941785388128302
37.12,0.00584633957192353
37.2,0.005760602642058223
37.28,0.005688004152515963
37.36,0.005631777688587119
37.44,0.005594652861865949
37.52,0.005578593476738452
37.6,0.005584590845157198
37.68,0.005612510012771234
37.76,0.005660985454728966
37.84,0.005727371119331865
37.92,0.005807762435290307
38.0,0.0058971172657897196
38.08,0.005989501490256589
38.160000000000004,0.006078469288673338
38.24,0.0061575602394398085
38.32,0.0062208623830509
38.4,0.0062635629640168085
38.480000000000004,0.006282396718218759
38.56,0.006275911338842594
38.64,0.006244500749817733
38.72,0.006190202053614716
38.800000000000004,0.006116299910895798
38.88,0.006026819984121215
38.96,0.005926011030213132
39.04,0.00581790901773515
39.12,0.005706048768656812
39.2,0.005593347325470266
39.28,0.005482139888348971
39.36,0.005374314911575657
39.44,0.005271477735725007
39.52,0.005175074845994814
39.6,0.005086431028661104
39.68,0.005006682714336929
39.76,0.004936623967396656
39.84,0.004876508563488088
39.92,0.004825866377544154
40.0,0.004783392335404582
40.08,0.004746952514126041
40.160000000000004,0.0047137285233563074
40.24,0.0046804935754345784
40.32,0.0046439873848469135
40.4,0.004601337029642013
40.480000000000004,0.004550460325694985
40.56,0.0044903884076999195
40.64,0.004421454638728107
40.72,0.004345315837276261
40.800000000000004,0.004264796254311747
40.88,0.004183571243165248
40.96,0.00410573233332778
41.04,0.0040352947040714305
41.12,0.003975718608451172
41.2,0.003929515859264015
41.28,0.0038980002747377287
41.36,0.0038812180960725055
41.44,0.003878063984214075
41.52,0.0038865552732956403
41.6,0.003904207867570647
41.68,0.0039284377361059955
41.76,0.003956907257248172
41.84,0.003987747844743446
41.92,0.004019617837813156
42.0,0.004051592251815435
42.08,0.004082920452233296
42.160000000000004,0.004112719841903312
42.24,0.004139690224302145
42.32,0.004161930112403438
42.4,0.004176913290487782
42.480000000000004,0.004181646796247536
42.56,0.004172989215220054
42.64,0.004148071051089551
42.72,0.004104735709495096
42.800000000000004,0.004041915260037561
42.88,0.00395986964995077
42.96,0.0038602468702204993
43.04,0.003745957147620665
43.12,0.0036208882245634694
43.2,0.0034895142889640983
43.28,0.0033564641220822956
43.36,0.00322611386933549
43.44,0.0031022586241899724
43.52,0.0029878985130249794
43.6,0.0028851533501487656
43.68,0.0027952988570772823
43.76,0.0027188996583023435
43.84,0.0026560016571476087
43.92,0.0026063401965577444
44.0,0.002569521341720931
44.08,0.0025451417662655275
44.160000000000004,0.0025328272021427328
44.24,0.002532188089710537
44.32,0.0025427105565205537
44.4,0.0025636170207564164
44.480000000000004,0.0025937395962791817
44.56,0.002631448416097063
44.64,0.002674665579889086
44.72,0.0027209758851251976
44.800000000000004,0.0027678222898302324
44.88,0.0028127528257080453
44.96,0.002853671773901884
45.04,0.0028890449089208955
45.12,0.002918017331970434
45.2,0.0029404206985597214
45.28,0.0029566699734354714
45.36,0.002967572578968661
45.44,0.0029740897022201025
45.52,0.002977097084118181
45.6,0.0029771898257561526
45.68,0.002974564129877063
45.76,0.0029689918283434553
45.84,0.002959885186866488
45.92,0.0029464336414733103
46.0,0.0029277834503145875
46.08,0.0029032268639470234
46.160000000000004,0.0028723690574266984
46.24,0.0028352474930501068
46.32,0.0027923878945525574
46.4,0.0027447918433936083
46.480000000000004,0.0026938615322235834
46.56,0.0026412760344175605
46.64,0.0025888394542818334
46.72,0.002538323767482479
46.800000000000004,0.002491327823255559
46.88,0.002449169279047248
46.96,0.0024128192313818513
47.04,0.0023828814936733417
47.12,0.002359611436006104
47.2,0.00234296429926251
47.28,0.0023326605412084776
47.36,0.002328255945324275
47.44,0.0023292062268672094
47.52,0.002334918764425927
47.6,0.002344787053076367
47.68,0.002358206074427518
47.76,0.0023745689810007915
47.84,0.0023932475240111967
47.92,0.0024135607330583175
48.0,0.0024347384636846416
48.08,0.0024558882224462973
48.160000000000004,0.002475974595694142
48.24,0.0024938200972157536
48.32,0.0025081340300545617
48.4,0.0025175721759757887
48.480000000000004,0.002520825347461248
48.56,0.0025167298779041163
48.64,0.0025043888103304553
48.72,0.00248328950279526
48.800000000000004,0.0024534019543751874
48.88,0.0024152425077076344
48.96,0.0023698897526427953
49.04,0.0023189434931152053
49.120000000000005,0.0022644235613977597
49.2,0.0022086128705924198
49.28,0.0021538577377605735
49.36,0.00210234694525328
49.44,0.0020558974929785027
49.52,0.0020157776536226975
49.6,0.0019825953389540803
49.68,0.0019562715004581115
49.76,0.0019361052836377665
49.84,0.0019209222415924113
49.92,0.0019092822792166411
50.0,0.0018997134249150102
50.08,0.00189093350194465
50.160000000000004,0.0018820252884507033
50.24,0.0018725409933120947
50.32,0.0018625263796134654
50.4,0.0018524701817661422
50.480000000000004,0.0018431970384782774
50.56,0.0018357293047652906
50.64,0.0018311436690820332
50.72,0.0018304431601395658
50.800000000000004,0.0018344561114744425
50.88,0.0018437640337529843
50.96,0.0018586530919881966
51.04,0.0018790809615277897
51.120000000000005,0.0019046526424257477
51.2,0.0019346041274994133
51.28,0.0019677992680159836
51.36,0.002002750041985111
51.44,0.0020376715346290784
51.52,0.0020705793615963513
51.6,0.0020994295948101056
51.68,0.0021222914008732063
51.76,0.002137533217312958
51.84,0.00214399697056898
51.92,0.002141133403196398
52.0,0.002129075599928195
52.08,0.002108636512006771
52.160000000000004,0.0020812278389799495
52.24,0.0020487096732955783
52.32,0.00201319057556602
52.4,0.001976804558183349
52.480000000000004,0.0019414940036317167
52.56,0.0019088258633684265
52.64,0.0018798632188640491
52.72,0.0018551064023495083
52.800000000000004,0.001834508427873069
52.88,0.001817559536120214
52.96,0.0018034263031626576
53.04,0.0017911231696687716
53.120000000000005,0.0017796895955997242
53.2,0.0017683453328684031
53.28,0.0017566000385596742
53.36,0.0017443013461727669
53.44,0.0017316163898324155
53.52,0.0017189536904645619
53.6,0.0017068429515483628
53.68,0.0016957975426504148
53.76,0.0016861868400347814
53.84,0.0016781427515454332
53.92,0.0016715173834425025
54.0,0.00166589850915313
54.08,0.0016606783779694921
54.160000000000004,0.0016551616115940233
54.24,0.001648691271239663
54.32,0.0016407697545108295
54.4,0.0016311532569933808
54.480000000000004,0.0016199044699171804
54.56,0.001607396574956993
54.64,0.0015942705613600672
54.72,0.0015813555171851625
54.800000000000004,0.001569566376773676
54.88,0.0015597950220998446
54.96,0.0015528089947683893
55.04,0.0015491685196369898
