Frequency,PSD
6.0,0.5006475698930072
6.08,0.5012077588712895
6.16,0.5022971463701762
6.24,0.5038596301612017
6.32,0.5058245052769301
6.4,0.5081194595164753
6.48,0.5106836060576764
6.5600000000000005,0.5134784338122691
6.640000000000001,0.5164953644019694
6.72,0.5197595886000254
6.8,0.5233306727497421
6.88,0.5273008130876977
6.96,0.5317914766503352
7.04,0.536948604139464
7.12,0.5429358280866909
7.2,0.5499246158183617
7.28,0.5580801745814167
7.36,0.5675425046741182
7.44,0.5784031046797636
7.5200000000000005,0.5906792771053779
7.6000000000000005,0.6042893808548605
7.68,0.6190333300473392
7.76,0.6345828279939683
7.84,0.6504850958149053
7.92,0.6661822564662225
8.0,0.681046310828125
8.08,0.6944271792626034
8.16,0.7057090279455793
8.24,0.7143684746987866
8.32,0.7200275845624444
8.4,0.7224949620681463
8.48,0.7217896696361568
8.56,0.7181449086495342
8.64,0.7119910131845324
8.72,0.7039198880310195
8.8,0.6946351655431884
8.88,0.6848937666805249
8.96,0.6754451032280553
9.040000000000001,0.6669738976002062
9.120000000000001,0.6600517061658635
9.200000000000001,0.6551009575406468
9.28,0.6523738886120258
9.36,0.6519473334415402
9.44,0.6537329576975243
9.52,0.6575012364301203
9.6,0.662916247094544
9.68,0.6695772537336042
9.76,0.6770622417080816
9.84,0.6849682396702061
9.92,0.6929436413066095
10.0,0.7007089101157591
10.08,0.7080639231788682
10.16,0.714882479011566
10.24,0.7210966970011766
10.32,0.7266756735043446
10.4,0.7316034497394339
10.48,0.7358609455536993
10.56,0.739415165469338
10.64,0.7422170756437969
10.72,0.7442075857717414
10.8,0.7453295102961008
10.88,0.7455425159471971
10.96,0.7448379390652728
11.040000000000001,0.7432508181727471
11.120000000000001,0.7408672618794245
11.200000000000001,0.7378260910940893
11.28,0.7343143882415915
11.36,0.730557119258318
11.44,0.7268014351417194
11.52,0.7232967088807236
11.6,0.7202718752006808
11.68,0.7179121776830133
11.76,0.7163378655871455
11.84,0.7155875565733307
11.92,0.715608755999406
12.0,0.7162573508395171
12.08,0.7173068422331762
12.16,0.7184668095251132
12.24,0.7194088278429325
12.32,0.7197970050881081
12.4,0.719319627176439
12.48,0.7177181925132916
12.56,0.7148103922941282
12.64,0.7105043047753754
12.72,0.704802128079066
12.8,0.6977930566611261
12.88,0.6896362684872122
12.96,0.6805362733346119
13.040000000000001,0.67071390953372
13.120000000000001,0.6603769089052608
13.200000000000001,0.6496940566708981
13.280000000000001,0.6387765010511297
13.36,0.6276687535884813
13.44,0.6163505018354429
13.52,0.6047487495875017
13.6,0.5927582695538796
13.68,0.5802671542048348
13.76,0.5671835753663735
13.84,0.5534598030244067
13.92,0.5391100640623478
14.0,0.5242198170056743
14.08,0.5089452914928392
14.16,0.4935034880026106
14.24,0.4781540760277015
14.32,0.4631756352575813
14.4,0.4488393684621468
14.48,0.4353837229765557
14.56,0.4229932544138625
14.64,0.4117845323473289
14.72,0.4018009362870022
14.8,0.3930168935977016
14.88,0.38535062327761943
14.96,0.3786830075486008
15.040000000000001,0.37287910354733966
15.120000000000001,0.3678083016508598
15.200000000000001,0.36335941169236896
15.280000000000001,0.3594480260100791
15.36,0.35601518628667556
15.44,0.35301831578845927
15.52,0.3504171239098985
15.6,0.34815832168215466
15.68,0.34616321925702387
15.76,0.344321544858524
15.84,0.34249330894091334
15.92,0.34051861498365615
16.0,0.3382334634316362
16.080000000000002,0.33548825092999646
16.16,0.3321651311156526
16.240000000000002,0.32819075911581497
16.32,0.32354205133390945
16.4,0.31824414797692574
16.48,0.3123613840470564
16.56,0.30598339557008686
16.64,0.29920925862989833
16.72,0.29213267690937506
16.8,0.2848307481619436
16.88,0.27735791823874223
16.96,0.26974560381965823
17.04,0.26200687004209944
17.12,0.254144685631112
17.2,0.24616177537661554
17.28,0.23806999592194109
17.36,0.22989744607027282
17.44,0.22169209513348356
17.52,0.21352144111862437
17.6,0.20546845132175195
17.68,0.19762466137979814
17.76,0.19008171991125952
17.84,0.18292281687142908
17.92,0.17621532715947089
18.0,0.17000568288500884
18.080000000000002,0.16431703415283216
18.16,0.1591497588855137
18.240000000000002,0.1544844241231587
18.32,0.15028645580227756
18.400000000000002,0.14651158801693426
18.48,0.14311115373686784
18.56,0.14003643444952305
18.64,0.1372415668119179
18.72,0.13468485056129373
18.8,0.1323286440863424
18.88,0.13013830535957088
18.96,0.12808078536649112
19.04,0.12612348431296444
19.12,0.12423384540962326
19.2,0.12237992499606357
19.28,0.12053190065330073
19.36,0.11866422721468453
19.44,0.11675798143743016
19.52,0.11480288381626591
19.6,0.1127985544873382
19.68,0.11075472361533845
19.76,0.1086903282160459
19.84,0.10663163279149745
19.92,0.10460966360943039
20.0,0.10265731818099762
20.080000000000002,0.10080649922503379
20.16,0.09908554549705585
20.240000000000002,0.09751712410659462
20.32,0.09611664704812559
20.400000000000002,0.09489120686707542
20.48,0.09383900457348199
20.56,0.09294926036661874
20.64,0.09220263275019228
20.72,0.09157219588524017
20.8,0.09102501400026844
20.88,0.09052429381505886
20.96,0.09003199786830315
21.04,0.0895116874685743
21.12,0.08893126862202007
21.2,0.08826527265002668
21.28,0.08749633856971918
21.36,0.08661567956232205
21.44,0.08562249076193265
21.52,0.08452245124683902
21.6,0.08332564242170434
21.68,0.08204430601747126
21.76,0.08069087288989092
21.84,0.07927660776871956
21.92,0.07781105780615473
22.0,0.07630230347947228
22.080000000000002,0.07475783376566525
22.16,0.07318574179853707
22.240000000000002,0.07159588554678877
22.32,0.07000068463611402
22.400000000000002,0.06841531625734301
22.48,0.06685720550438608
22.56,0.06534484945238701
22.64,0.06389614303839056
22.72,0.0625264682056056
22.8,0.061246854098719196
22.88,0.06006251175600129
22.96,0.05897199494368245
23.04,0.05796714815619028
23.12,0.05703388643167069
23.2,0.05615372619823301
23.28,0.05530587095195175
23.36,0.05446956939626013
23.44,0.05362642276748869
23.52,0.052762331431695814
23.6,0.051868837337761084
23.68,0.05094372625659884
23.76,0.04999088032459597
23.84,0.049019491001295226
23.92,0.0480428306011987
24.0,0.047076820367957274
24.080000000000002,0.046138619868004174
24.16,0.04524540429245987
24.240000000000002,0.04441341124435568
24.32,0.04365725003363105
24.400000000000002,0.0429893968353283
24.48,0.04241976463402561
24.560000000000002,0.04195524457548654
24.64,0.04159916156365255
24.72,0.041350658675355145
24.8,0.041204102662577
24.88,0.04114866442108508
24.96,0.04116825403535098
25.04,0.04124196716897719
25.12,0.04134512656220968
25.2,0.04145089074852856
25.28,0.04153227540886943
25.36,0.04156432210170555
25.44,0.04152608535168485
25.52,0.0414021142207184
25.6,0.04118318420755919
25.68,0.040866175732967705
25.76,0.04045316543601876
25.84,0.03994995539747355
25.92,0.03936437409427372
26.0,0.038704714694268734
26.080000000000002,0.03797862439209801
26.16,0.037192637478145926
26.240000000000002,0.03635238620205265
26.32,0.03546336648573142
26.400000000000002,0.03453201650852275
26.48,0.0335668095647441
26.560000000000002,0.03257907590445643
26.64,0.03158334205287334
26.72,0.030597088155040423
26.8,0.029639946065064808
26.88,0.028732466375696476
26.96,0.0278946517360864
27.04,0.02714447749518884
27.12,0.026496600703991444
27.2,0.02596140541459805
27.28,0.02554446177739017
27.36,0.025246405315257243
27.44,0.02506318473351723
27.52,0.02498659008152432
27.6,0.025004960076775423
27.68,0.025103974397913138
27.76,0.025267456566943746
27.84,0.025478137372983645
27.92,0.025718350596109475
28.0,0.025970647894141774
28.080000000000002,0.026218327322627796
28.16,0.02644587208370751
28.240000000000002,0.026639296229330936
28.32,0.026786395540753728
28.400000000000002,0.026876906585311392
28.48,0.026902584831055655
28.560000000000002,0.02685722157323867
28.64,0.02673662614377986
28.72,0.026538601490013854
28.8,0.02626293614823742
28.88,0.025911424377594562
28.96,0.025487911245870666
29.04,0.024998344519060828
29.12,0.02445080412716471
29.2,0.02385547545331969
29.28,0.023224535470446082
29.36,0.022571929493782283
29.44,0.021913028186348382
29.52,0.02126416617581358
29.6,0.020642072709114553
29.68,0.02006321032907096
29.76,0.019543040651938962
29.84,0.019095239420067738
29.92,0.018730888896446453
30.0,0.018457686158992178
30.080000000000002,0.01827922062872832
30.16,0.018194390311314607
30.240000000000002,0.018197038612194925
30.32,0.018275896094464287
30.400000000000002,0.01841489891020913
30.48,0.018593925276669598
30.560000000000002,0.018789944780272416
30.64,0.018978518426661636
30.72,0.019135529828241772
30.8,0.019238981124921076
30.88,0.019270661780445723
30.96,0.01921750151066299
31.04,0.019072452138633685
31.12,0.01883480281589206
31.2,0.01850990893281689
31.28,0.018108393722805163
31.36,0.017644948900442343
31.44,0.01713690489442757
31.52,0.016602755470884956
31.6,0.016060805159398575
31.68,0.01552806634449342
31.76,0.015019476151046499
31.84,0.014547443357447384
31.92,0.01412168385530644
32.0,0.013749268029241375
32.08,0.0134347889842459
32.160000000000004,0.013180566475552075
32.24,0.012986823663313898
32.32,0.012851805982468222
32.4,0.012771846072616205
32.480000000000004,0.012741408723701657
32.56,0.012753169288868011
32.64,0.012798184109677233
32.72,0.01286620084103653
32.8,0.01294613170719743
32.88,0.01302667816900663
32.96,0.013097058210988742
33.04,0.013147755772945864
33.12,0.013171193669195403
33.2,0.013162232207253198
33.28,0.01311841714842327
33.36,0.0130399393283483
33.44,0.012929316486141684
33.52,0.012790855272023584
33.6,0.01262998750185939
33.68,0.01245259148462375
33.76,0.01226440315213506
33.84,0.012070594580049073
33.92,0.011875555891854234
34.0,0.011682870152732172
34.08,0.011495430110666022
34.160000000000004,0.011315619349184725
34.24,0.011145473940876501
34.32,0.010986754905352144
34.4,0.010840892980885794
34.480000000000004,0.01070880796285142
34.56,0.010590645489963158
34.64,0.010485504853525172
34.72,0.01039124436996804
34.800000000000004,0.010304442225192476
34.88,0.010220561686438397
34.96,0.010134326490158725
35.04,0.010040265139777366
35.12,0.009933343215035511
35.2,0.009809580393394874
35.28,0.009666549174511532
35.36,0.009503674874955669
35.44,0.009322295198777619
35.52,0.00912548259552955
35.6,0.00891767279376059
35.68,0.008704169667055027
35.76,0.008490605749133804
35.84,0.008282430235195851
35.92,0.008084477354462287
36.0,0.007900644758764924
36.08,0.007733690732689228
36.160000000000004,0.007585144821319438
36.24,0.007455319840284167
36.32,0.007343412274449016
36.4,0.007247679351683934
36.480000000000004,0.0071656812415508
36.56,0.007094573888962176
36.64,0.007031431920152605
36.72,0.0069735735984843596
36.800000000000004,0.006918853728808051
36.88,0.006865888509199256
36.96,0.0068141805291580485
37.04,0.006764122864206577
37.12,0.006716877313869703
37.2,0.006674140635372114
37.28,0.006637830620035913
37.36,0.006609737410372637
37.44,0.006591191646996869
37.52,0.006582798381276126
37.6,0.00658427455769657
37.68,0.006594410458220346
37.76,0.006611155353520241
37.84,0.006631808751800633
37.92,0.006653284585776017
38.0,0.0066724085747164544
38.08,0.006686209181661887
38.160000000000004,0.006692168709263766
38.24,0.006688410718561761
38.32,0.0066738104928501275
38.4,0.006648024711592194
38.480000000000004,0.006611443964453467
38.56,0.006565077432370401
38.64,0.006510383821983604
38.72,0.006449067214240798
38.800000000000004,0.0063828609371518776
38.88,0.006313326012415169
38.96,0.006241691569872407
39.04,0.006168761244539939
39.12,0.006094901121151849
39.2,0.006020111849682245
39.28,0.005944172302185592
39.36,0.005866827934153784
39.44,0.005787987462613636
39.52,0.005707889311125838
39.6,0.005627205413356803
39.68,0.005547063105972804
39.76,0.0054689827560928635
39.84,0.005394745252453575
39.92,0.005326215606319459
40.0,0.0052651541404189145
40.08,0.005213044650294765
40.160000000000004,0.005170961094528
40.24,0.005139483739015202
40.32,0.005118665446996436
40.4,0.005108041401384227
40.480000000000004,0.005106671980705637
40.56,0.005113208317164787
40.64,0.005125971786388286
40.72,0.005143040653773261
40.800000000000004,0.0051623382212891014
40.88,0.005181716929062107
40.96,0.0051990327052562485
41.04,0.0052122045675854
41.12,0.0052192569403674855
41.2,0.005218346428553259
41.28,0.005207779940604898
41.36,0.005186035369580439
41.44,0.005151797662024658
41.52,0.005104020731953782
41.6,0.0050420191600800135
41.68,0.004965584148680993
41.76,0.004875108064084296
41.84,0.004771693840818388
41.92,0.004657221966202769
42.0,0.004534350104708142
42.08,0.004406428625796572
42.160000000000004,0.0042773279229345795
42.24,0.004151187989283973
42.32,0.0040321143838604415
42.4,0.003923854880835314
42.480000000000004,0.00382949592825115
42.56,0.0037512167930955085
42.64,0.0036901322531259417
42.72,0.0036462431188853716
42.800000000000004,0.0036184995452579567
42.88,0.0036049671375511802
42.96,0.003603072415716154
43.04,0.003609894194896643
43.12,0.0036224623427561983
43.2,0.0036380259868180626
43.28,0.0036542595252619502
43.36,0.0036693857734605966
43.44,0.003682209439215692
43.52,0.003692068464862157
43.6,0.0036987230596748338
43.68,0.003702210295131042
43.76,0.0037026946139184433
43.84,0.0037003413218864457
43.92,0.0036952320922130615
44.0,0.0036873306716075395
44.08,0.003676495794436036
44.160000000000004,0.003662529160865201
44.24,0.00364524097893542
44.32,0.0036245147703372997
44.4,0.00360035653826243
44.480000000000004,0.0035729196741956376
44.56,0.003542504250258899
44.64,0.0035095356646925886
44.72,0.003474531493858372
44.800000000000004,0.0034380661791289825
44.88,0.0034007410927009395
44.96,0.0033631636143727738
45.04,0.0033259345648040985
45.12,0.003289640096630145
45.2,0.003254842904076641
45.28,0.0032220686188766737
45.36,0.003191786010738294
45.44,0.003164383045727026
45.52,0.003140143718229002
45.6,0.00311923181004415
45.68,0.00310168683035867
45.76,0.00308743454098143
45.84,0.0030763105077188067
45.92,0.0030680912688117908
46.0,0.003062525213606542
46.08,0.0030593549765519507
46.160000000000004,0.0030583252683356876
46.24,0.0030591740434457275
46.32,0.003061609616415873
46.4,0.0030652804292489143
46.480000000000004,0.0030697464752942917
46.56,0.0030744612922623156
46.64,0.003078771073274974
46.72,0.0030819335947052974
46.800000000000004,0.003083155478797086
46.88,0.0030816429248158896
46.96,0.0030766591905011763
47.04,0.0030675819343178347
47.12,0.0030539546322009246
47.2,0.0030355279337176966
47.28,0.003012288306740024
47.36,0.002984472224341426
47.44,0.002952564498730683
47.52,0.0029172795625442664
47.6,0.0028795250762426484
47.68,0.0028403485896787498
47.76,0.002800870120306491
47.84,0.002762206011606202
47.92,0.0027253915847803324
48.0,0.0026913111460584623
48.08,0.002660643377777449
48.160000000000004,0.0026338280054210954
48.24,0.002611056363898707
48.32,0.0025922848790910745
48.4,0.002577267378574919
48.480000000000004,0.00256560016307663
48.56,0.0025567731240011896
48.64,0.0025502206976595054
48.72,0.0025453676654960122
48.800000000000004,0.002541666269333439
48.88,0.002538622491678414
48.96,0.002535810562342075
49.04,0.002532875876197424
49.120000000000005,0.0025295276572919606
49.2,0.0025255238855064616
49.28,0.002520652041985514
49.36,0.0025147098319163418
49.44,0.0025074899263623045
49.52,0.0024987718225119755
49.6,0.0024883223198057976
49.68,0.0024759042662493395
49.76,0.0024612916789254827
49.84,0.0024442885355325725
49.92,0.0024247486556571926
50.0,0.002402594978206142
50.08,0.0023778377308945192
50.160000000000004,0.0023505918817946087
50.24,0.002321094359175671
50.32,0.0022897206218092797
50.4,0.0022569984634340616
50.480000000000004,0.0022236150241221504
50.56,0.0021904116468312446
50.64,0.002158361198726852
50.72,0.002128524199221018
50.800000000000004,0.0021019834863905164
50.88,0.002079761597598047
50.96,0.002062729513507243
51.04,0.002051518743179763
51.120000000000005,0.0020464499141469375
51.2,0.0020474895452915996
51.28,0.0020542426300814744
51.36,0.002065982790104932
51.44,0.0020817152931581085
51.52,0.0021002625718044912
51.6,0.002120358289622974
51.68,0.0021407353085412233
51.76,0.0021601953053490292
51.84,0.0021776527722004897
51.92,0.002192152616045922
52.0,0.0022028670653654985
52.08,0.002209082554578707
52.160000000000004,0.0022101894332709256
52.24,0.0022056860942246907
52.32,0.0021952045944443905
52.4,0.0021785580409536525
52.480000000000004,0.002155802534429237
52.56,0.0021273001612111524
52.64,0.0020937660357707878
52.72,0.0020562827261561955
52.800000000000004,0.0020162696602877683
52.88,0.001975402517758367
52.96,0.001935486668840497
53.04,0.001898297612274863
53.120000000000005,0.0018654083577466628
53.2,0.0018380275043439632
53.28,0.0018168717256633648
53.36,0.0018020925055652016
53.44,0.0017932698864611685
53.52,0.0017894767408489776
53.6,0.0017894069698575323
53.68,0.001791551494170168
53.76,0.001794398325299213
53.84,0.0017966286019977873
53.92,0.0017972801177636925
54.0,0.001795853907026947
54.08,0.0017923475992273293
54.160000000000004,0.0017872104725483499
54.24,0.001781227772230656
54.32,0.0017753538002795392
54.4,0.0017705223545809359
54.480000000000004,0.0017674674664023508
54.56,0.0017665859846846554
54.64,0.0017678663592599053
54.72,0.001770896094342825
54.800000000000004,0.0017749458732594172
54.88,0.0017791139988929735
54.96,0.0017825033359272844
55.04,0.0017843966744488654
