Frequency,PSD
6.057142857142857,0.15827179817634962
6.171428571428571,0.16009181593528019
6.285714285714286,0.16378607016452618
6.3999999999999995,0.169419429424562
6.514285714285714,0.17700953318946747
6.628571428571428,0.1864857216848887
6.742857142857143,0.19767298014196694
6.857142857142857,0.2102895444686087
6.9714285714285715,0.22395175905934483
7.085714285714285,0.238201112100845
7.2,0.25257964205284883
7.314285714285714,0.2667637304296077
7.428571428571428,0.2807277893945544
7.542857142857143,0.2948689591718636
7.657142857142857,0.3100061838577039
7.771428571428571,0.327193604448501
7.885714285714285,0.34736533945435877
8.0,0.3709283115471138
8.114285714285714,0.3974797454408604
8.228571428571428,0.4257909937192597
8.342857142857143,0.45407604666381673
8.457142857142857,0.4804301572466196
8.571428571428571,0.5032724382423167
8.685714285714285,0.5216794014924537
8.799999999999999,0.5355898828291837
8.914285714285715,0.5459070905559114
9.028571428571428,0.554492802237745
9.142857142857142,0.5639967217552501
9.257142857142856,0.577466872609399
9.371428571428572,0.597762778697688
9.485714285714286,0.6268859190881864
9.6,0.665382355584297
9.714285714285714,0.7119480282505607
9.828571428571427,0.7633225874285476
9.942857142857143,0.8145290553476725
10.057142857142857,0.8594851026680423
10.17142857142857,0.8919361258535451
10.285714285714285,0.9065467272548613
10.4,0.8999005412249472
10.514285714285714,0.8711587038338285
10.628571428571428,0.822213838321197
10.742857142857142,0.757304337574046
10.857142857142858,0.6821847523985075
10.971428571428572,0.6030612324753869
11.085714285714285,0.5255654896702353
11.2,0.4540162618408186
11.314285714285713,0.3910978248468634
11.428571428571429,0.3379275606865729
11.542857142857143,0.29437297651832717
11.657142857142857,0.2594581478282714
11.77142857142857,0.2317496605164337
11.885714285714286,0.2096774194818588
12.0,0.19178425158248685
12.114285714285714,0.17690263841495174
12.228571428571428,0.16424490090636334
12.342857142857142,0.15338902210060282
12.457142857142857,0.14416194802420812
12.571428571428571,0.13646232742214862
12.685714285714285,0.13010027840291047
12.799999999999999,0.12473122085852623
12.914285714285715,0.11991302583205893
13.028571428571428,0.11524593296317764
13.142857142857142,0.11050883190934124
13.257142857142856,0.10571401842606153
13.371428571428572,0.10105637241135071
13.485714285714286,0.09679315002075321
13.6,0.09312020418761195
13.714285714285714,0.09009899941356306
13.828571428571427,0.08765281396422137
13.942857142857143,0.08561598546724088
14.057142857142857,0.08380411977678756
14.17142857142857,0.08207700662104289
14.285714285714285,0.08037915434661455
14.4,0.07875354013911026
14.514285714285714,0.0773278011177908
14.628571428571428,0.07627318271334707
14.742857142857142,0.07574267074701838
14.857142857142856,0.07580730065269695
14.971428571428572,0.07641993521430457
15.085714285714285,0.07743116361512252
15.2,0.07865837782913333
15.314285714285713,0.07997851165473892
15.428571428571429,0.08139843380032659
15.542857142857143,0.0830674763004248
15.657142857142857,0.08522706089121149
15.77142857142857,0.08812185607535708
15.885714285714284,0.09190853254560095
16.0,0.09659151113321282
16.114285714285714,0.10200102779989206
16.228571428571428,0.10781603026519654
16.34285714285714,0.11362371439033175
16.457142857142856,0.11899837224186607
16.57142857142857,0.12357862967047387
16.685714285714287,0.12712765847255755
16.8,0.12957035755132343
16.914285714285715,0.13100392656163454
17.02857142857143,0.13167140787667436
17.142857142857142,0.13188508490107392
17.257142857142856,0.13190418006869267
17.37142857142857,0.13180630764051768
17.485714285714284,0.1314183587365449
17.599999999999998,0.13036141408017016
17.714285714285715,0.12821259620240788
17.82857142857143,0.1247230465337696
17.942857142857143,0.1199952015610398
18.057142857142857,0.11453624587546235
18.17142857142857,0.10915894531367468
18.285714285714285,0.10476550552796207
18.4,0.10209383893779565
18.514285714285712,0.10151335510334436
18.628571428571426,0.1029321922823494
18.742857142857144,0.10583461049103252
18.857142857142858,0.10942429623484927
18.97142857142857,0.11282139034868413
19.085714285714285,0.11525497119793923
19.2,0.11620567551066231
19.314285714285713,0.11547540874746091
19.428571428571427,0.11318242467632926
19.54285714285714,0.10969507671961808
19.657142857142855,0.10552649932065009
19.771428571428572,0.10121768541383955
19.885714285714286,0.09723825089595342
20.0,0.09392967355571097
20.114285714285714,0.09150122751871277
20.228571428571428,0.09006521131329291
20.34285714285714,0.08967565696701316
20.457142857142856,0.0903301884316905
20.57142857142857,0.09191872721974562
20.685714285714287,0.09414639964839192
20.8,0.09649262256365655
20.914285714285715,0.09826427696075642
21.02857142857143,0.09875240309790521
21.142857142857142,0.09743663276721175
21.257142857142856,0.09414380585572292
21.37142857142857,0.08908540015268217
21.485714285714284,0.08276266179373444
21.599999999999998,0.07579628525636525
21.714285714285715,0.06876553571863572
21.82857142857143,0.06211698432738365
21.942857142857143,0.056150162272015455
22.057142857142857,0.051045705954400895
22.17142857142857,0.04689403681894275
22.285714285714285,0.04370348511770588
22.4,0.04139336769833156
22.514285714285712,0.03979132385044087
22.628571428571426,0.038651468055968335
22.742857142857144,0.03769755099156081
22.857142857142858,0.03668161323319521
22.97142857142857,0.03543897572471534
23.085714285714285,0.03391857848800162
23.2,0.03217614548485368
23.314285714285713,0.030334431703891898
23.428571428571427,0.02853121441398143
23.54285714285714,0.026880715655322896
23.657142857142855,0.025463421233499622
23.771428571428572,0.024339900173712264
23.885714285714286,0.023569778748670153
24.0,0.023216735380071685
24.114285714285714,0.023332560171142547
24.228571428571428,0.023928132801051508
24.34285714285714,0.024947180717420907
24.457142857142856,0.026257102169464995
24.57142857142857,0.02766345673523663
24.685714285714283,0.02894592643450968
24.8,0.029906355837005502
24.914285714285715,0.03041457412431958
25.02857142857143,0.03043625915459708
25.142857142857142,0.030031538131434447
25.257142857142856,0.0293241518842508
25.37142857142857,0.02845460031627746
25.485714285714284,0.027538351717271176
25.599999999999998,0.026645788209061536
25.71428571428571,0.025806484075321406
25.82857142857143,0.02502682518068447
25.942857142857143,0.024306332296730074
26.057142857142857,0.023644926079688593
26.17142857142857,0.02304278555498273
26.285714285714285,0.02249819858984562
26.4,0.02200598532382313
26.514285714285712,0.02155539295064563
26.628571428571426,0.021126874061625486
26.742857142857144,0.020690848050188518
26.857142857142858,0.020213121087911234
26.97142857142857,0.019667898768530295
27.085714285714285,0.01905286340226029
27.2,0.018397456669565347
27.314285714285713,0.01775863752477313
27.428571428571427,0.017205656113500518
27.54285714285714,0.016801112412974117
27.657142857142855,0.016585872399833796
27.771428571428572,0.016571321129237038
27.885714285714286,0.01673822088999328
28.0,0.01704020892180895
28.114285714285714,0.017411022695809294
28.228571428571428,0.017775124257482105
28.34285714285714,0.018060342660075116
28.457142857142856,0.01820999429936025
28.57142857142857,0.018192326647366693
28.685714285714283,0.018006291329640194
28.8,0.017682555490733096
28.914285714285715,0.017277418095701543
29.02857142857143,0.0168578855426189
29.142857142857142,0.016480704344826014
29.257142857142856,0.01617410514580741
29.37142857142857,0.015932521219988678
29.485714285714284,0.015728336077518907
29.599999999999998,0.015534283802737428
29.71428571428571,0.015343324996110613
29.82857142857143,0.015174972651298324
29.942857142857143,0.015066276053046859
30.057142857142857,0.0150547795489775
30.17142857142857,0.015163500498252476
30.285714285714285,0.015393857745769799
30.4,0.01572628859976819
30.514285714285712,0.016125154000041886
30.628571428571426,0.016545569671022855
30.74285714285714,0.016942002262009464
30.857142857142858,0.01727842204227022
30.97142857142857,0.017537318050241692
31.085714285714285,0.017722959625308503
31.2,0.017855790937779573
31.314285714285713,0.017959478053083407
31.428571428571427,0.018046679380407042
31.54285714285714,0.018110812576143866
31.657142857142855,0.01812812752553812
31.77142857142857,0.0180691038171285
31.885714285714286,0.017913515431292663
32.0,0.017661783569471214
32.114285714285714,0.017337198880213716
32.22857142857143,0.016978138914431267
32.34285714285714,0.016624191249951726
32.457142857142856,0.016302762508729977
32.57142857142857,0.016022156963317012
32.68571428571428,0.015773721103386085
32.8,0.01554115734175637
32.91428571428571,0.015311665070473619
33.028571428571425,0.015082974896670983
33.14285714285714,0.014863087377242882
33.25714285714285,0.014664095995402216
33.371428571428574,0.01449492438628465
33.48571428571429,0.01435775917406195
33.6,0.014249523493499104
33.714285714285715,0.014165567925489666
33.82857142857143,0.014101047833893357
33.94285714285714,0.014047561125177027
34.05714285714286,0.013987122427702288
34.17142857142857,0.013889225005937082
34.285714285714285,0.01371659985451584
34.4,0.013440554605326366
34.51428571428571,0.013059823427916985
34.628571428571426,0.012612195805958761
34.74285714285714,0.012169702370831217
34.857142857142854,0.011816070810072247
34.97142857142857,0.011615276077273744
35.08571428571428,0.01158598705087912
35.199999999999996,0.011694480175947772
35.31428571428572,0.011869274701216048
35.42857142857143,0.012029958906054763
35.542857142857144,0.012116637254021258
35.65714285714286,0.012107886067078738
35.77142857142857,0.01202210248733004
35.885714285714286,0.01190507151332539
36.0,0.011811469417947654
36.114285714285714,0.011788402141561205
36.22857142857143,0.011865896022422533
36.34285714285714,0.012054768663253479
36.457142857142856,0.012348919394897804
36.57142857142857,0.01272833408243867
36.68571428571428,0.013160880419818614
36.8,0.01360357999971188
36.91428571428571,0.014005465997353653
37.028571428571425,0.01431355157455243
37.14285714285714,0.01448161724466967
37.25714285714285,0.014479881039165731
37.371428571428574,0.014302990735259175
37.48571428571429,0.013974111139226655
37.6,0.013543662746814854
37.714285714285715,0.013082134083725815
37.82857142857143,0.012667372616962136
37.94285714285714,0.012368137878769732
38.05714285714286,0.0122274970525835
38.17142857142857,0.012251112575812852
38.285714285714285,0.012405244600048727
38.4,0.012626461206806508
38.51428571428571,0.012840405974599043
38.628571428571426,0.012983011043756902
38.74285714285714,0.013016783488971506
38.857142857142854,0.012937679996545583
38.97142857142857,0.012772475252676111
39.08571428571428,0.012569454456519486
39.199999999999996,0.01238546526933499
39.31428571428571,0.012271208376189151
39.42857142857143,0.012256468077480051
39.542857142857144,0.012338552645843775
39.65714285714286,0.01247879414790067
39.77142857142857,0.012610937453289303
39.885714285714286,0.01266079158565054
40.0,0.012570779255563899
40.114285714285714,0.01231977470623413
40.22857142857143,0.011930365786408279
40.34285714285714,0.011461605289802963
40.457142857142856,0.010991814300095683
40.57142857142857,0.010599271191228546
40.68571428571428,0.010347299384849877
40.8,0.010276040875036517
40.91428571428571,0.010399250964669602
41.028571428571425,0.010703176780698712
41.14285714285714,0.011146248278923156
41.25714285714285,0.01166116718091173
41.371428571428574,0.012162523848022811
41.48571428571429,0.012561666240694196
41.6,0.01278659921324039
41.714285714285715,0.01280065610751224
41.82857142857143,0.012612538778838254
41.94285714285714,0.012273356914048678
42.05714285714286,0.011861907395019945
42.17142857142857,0.01146417489622839
42.285714285714285,0.011154229081505436
42.4,0.010981334044378642
42.51428571428571,0.010964434510459706
42.628571428571426,0.011092704932016719
42.74285714285714,0.011330447711431076
42.857142857142854,0.011625443349527682
42.97142857142857,0.01192030044751492
43.08571428571428,0.012165433599179694
43.199999999999996,0.012330446638365735
43.31428571428571,0.012409624148502165
43.42857142857143,0.012418621636516502
43.542857142857144,0.012383288829200971
43.65714285714286,0.012325659171551307
43.77142857142857,0.012253619914460497
43.885714285714286,0.01215854390836691
44.0,0.012020929774459378
44.114285714285714,0.011820849223417716
44.22857142857143,0.011549302133472899
44.34285714285714,0.011217423706094371
44.457142857142856,0.010860905810682253
44.57142857142857,0.010536681782607792
44.68571428571428,0.010309846445668774
44.8,0.010232773558688827
44.91428571428571,0.010324175497881288
45.028571428571425,0.010559006595559353
45.14285714285714,0.010876699376771324
45.25714285714285,0.011205838994628911
45.37142857142857,0.011493628365408907
45.48571428571429,0.01172505310689541
45.6,0.011922204130778737
45.714285714285715,0.012125407732493085
45.82857142857143,0.012367679171874157
45.94285714285714,0.012656705298660581
46.05714285714286,0.012972954011411957
46.17142857142857,0.013282534081643796
46.285714285714285,0.013555286990167122
46.4,0.013776848664870993
46.51428571428571,0.013948438949574022
46.628571428571426,0.014076292724305328
46.74285714285714,0.014158866778323276
46.857142857142854,0.01418078202236048
46.97142857142857,0.014117821566948244
47.08571428571428,0.0139502899182293
47.199999999999996,0.013676965589995212
47.31428571428571,0.013321676478991733
47.42857142857143,0.01292893966447099
47.542857142857144,0.012551055902665849
47.65714285714286,0.012232949481320074
47.77142857142857,0.0120011736657727
47.885714285714286,0.011860579441921272
48.0,0.0117981992425047
48.114285714285714,0.011790916599909293
48.22857142857143,0.011812755473574724
48.34285714285714,0.011839345197479438
48.457142857142856,0.011850111115251144
48.57142857142857,0.011830748036662222
48.68571428571428,0.011777783586891678
48.8,0.011704024929717342
48.91428571428571,0.011641160789391989
49.028571428571425,0.011636396513125499
49.14285714285714,0.011743517863079605
49.25714285714285,0.012011984313952926
49.37142857142857,0.01247736635499993
49.48571428571429,0.013153039168777173
49.6,0.014020663996754314
49.714285714285715,0.015019540758046469
49.82857142857143,0.016041358205594197
49.94285714285714,0.016940768756686223
50.05714285714286,0.01756723673925413
50.17142857142857,0.01781050072076987
50.285714285714285,0.0176399013070204
50.4,0.017117231839310097
50.51428571428571,0.01637584508480648
50.628571428571426,0.015576660398709332
50.74285714285714,0.014862016188038955
50.857142857142854,0.014325344682804051
50.97142857142857,0.014003011257623817
51.08571428571428,0.013883537451751542
51.199999999999996,0.013924645890732777
51.31428571428571,0.014069873080086594
51.42857142857142,0.014260476952343134
51.542857142857144,0.014442183945324889
51.65714285714286,0.014568786415855614
51.77142857142857,0.01460531331097091
51.885714285714286,0.014532336979288284
52.0,0.014350561711801175
52.114285714285714,0.014082789707849382
52.22857142857143,0.01377047897693177
52.34285714285714,0.013464827539843335
52.457142857142856,0.013215837299193216
52.57142857142857,0.013064117739380526
52.68571428571428,0.013037682908075898
52.8,0.013151504737640284
52.91428571428571,0.013405354701005463
53.028571428571425,0.013778239182099184
53.14285714285714,0.014223500535436511
53.25714285714285,0.014671815780087081
53.37142857142857,0.01504588400849571
53.48571428571429,0.01528243672630664
53.6,0.015350885159082733
53.714285714285715,0.015258842069044432
53.82857142857143,0.015042385402589762
53.94285714285714,0.014747493165739397
54.05714285714286,0.014412697896684118
54.17142857142857,0.014060235893824534
54.285714285714285,0.01369699267332868
54.4,0.013321810751079773
54.51428571428571,0.012934437544480638
54.628571428571426,0.012542687896335947
54.74285714285714,0.012166095602117491
54.857142857142854,0.011835206353880197
54.97142857142857,0.011586213406870658
55.08571428571428,0.01145191259702475
