Frequency,PSD
6.0,0.37564736248325736
6.08,0.3799167726599969
6.16,0.38740482264915727
6.24,0.3964224566022485
6.32,0.4052527137272757
6.4,0.41266370740267266
6.48,0.4181250885878559
6.5600000000000005,0.4217261283095589
6.640000000000001,0.4239517748082341
6.72,0.42548859163867975
6.8,0.42711531780251116
6.88,0.42960022846312984
6.96,0.4335095060524918
7.04,0.43895445747929873
7.12,0.4454583166358317
7.2,0.4521431815186122
7.28,0.45826044486710904
7.36,0.4638226260217222
7.44,0.4699457129863637
7.5200000000000005,0.4786141444695703
7.6000000000000005,0.491889710313166
7.68,0.5109089005110248
7.76,0.5351525852073863
7.84,0.562351569010807
7.92,0.5890891846209736
8.0,0.6118457118220393
8.08,0.6280574041820975
8.16,0.636803258710395
8.24,0.6389356977080435
8.32,0.6367086316830952
8.4,0.6331065427341109
8.48,0.6311016059769741
8.56,0.633009013047806
8.64,0.640042337451095
8.72,0.6521196545376795
8.8,0.6679273441762857
8.88,0.6852087628281118
8.96,0.7012279555128985
9.040000000000001,0.7133669081615042
9.120000000000001,0.7198058593962482
9.200000000000001,0.7201641009017491
9.28,0.715873284012346
9.36,0.7100321046006048
9.44,0.7066488769186952
9.52,0.7094737371484694
9.6,0.7208661417574224
9.68,0.7411492695368134
9.76,0.7686533912768068
9.84,0.8003174410962277
9.92,0.8325171965570957
10.0,0.861808195233503
10.08,0.885431981701758
10.16,0.9015856706737658
10.24,0.9095058968729258
10.32,0.9093901901786317
10.4,0.9021614509970427
10.48,0.8891369350308381
10.56,0.8717546977143064
10.64,0.8515215788051934
10.72,0.8302001795891599
10.8,0.8100223889632775
10.88,0.7936038632008988
10.96,0.7833852972424562
11.040000000000001,0.7807719464365691
11.120000000000001,0.78542321076933
11.200000000000001,0.7951300676681228
11.28,0.806412930038638
11.36,0.8156003663781082
11.44,0.8199522415680726
11.52,0.818440302699815
11.6,0.8119872639450866
11.68,0.8031474047715661
11.76,0.7953314505540663
11.84,0.7917651930996836
11.92,0.7944497559304542
12.0,0.8034271360718099
12.08,0.8165919717256314
12.16,0.8301275949181431
12.24,0.8394516213214647
12.32,0.8404160021348939
12.4,0.8304478984826826
12.48,0.809322960182714
12.56,0.7793258480009648
12.64,0.7447021988706839
12.72,0.710543277097557
12.8,0.6814768272838329
12.88,0.660613838798624
12.96,0.649046731624259
13.040000000000001,0.645910260206054
13.120000000000001,0.648809712947467
13.200000000000001,0.6544174606557709
13.280000000000001,0.6591630186410867
13.36,0.6600024178110732
13.44,0.6551533668421876
13.52,0.6445327883550244
13.6,0.6296358917809862
13.68,0.612828521037581
13.76,0.5963439684324234
13.84,0.5814430525765011
13.92,0.5680901359709738
14.0,0.5552061669988215
14.08,0.5412870123887559
14.16,0.5250721922352002
14.24,0.5060225377186518
14.32,0.4845158033251252
14.4,0.4617893469139508
14.48,0.43970135291613205
14.56,0.42036572109627257
14.64,0.4056936160305603
14.72,0.3968932343528209
14.8,0.3940435455072478
14.88,0.3959159005868139
14.96,0.40018974103205474
15.040000000000001,0.4040588225539813
15.120000000000001,0.4050179938855663
15.200000000000001,0.4014991842309276
15.280000000000001,0.3930944354366994
15.36,0.38033167347779556
15.44,0.36420036304191833
15.52,0.34570733937957565
15.6,0.3256495841295586
15.68,0.30462010447883636
15.76,0.283141840326121
15.84,0.26180596411539114
15.92,0.24134088904866657
16.0,0.2225944107230107
16.080000000000002,0.20644247465621632
16.16,0.19365212649172514
16.240000000000002,0.18473855254130012
16.32,0.1798630595643002
16.4,0.1788048539106577
16.48,0.18100338560179235
16.56,0.18563382975489684
16.64,0.19167581925153276
16.72,0.19797006030619213
16.8,0.20329933391469782
16.88,0.20653719361608003
16.96,0.20686178964432622
17.04,0.20396240252604475
17.12,0.19813082776963153
17.2,0.19016907369551544
17.28,0.18114106574525307
17.36,0.1720811763066131
17.44,0.16378441827041246
17.52,0.15673969679232974
17.6,0.1511836820877139
17.68,0.14720655216258077
17.76,0.14484439687080786
17.84,0.14411862726157904
17.92,0.14500536335164593
18.0,0.14734056601405718
18.080000000000002,0.1507013258329893
18.16,0.15433812441588365
18.240000000000002,0.15723249209894535
18.32,0.15830028032345628
18.400000000000002,0.1566792741156545
18.48,0.15198689266494242
18.56,0.14444564320612913
18.64,0.13483712377780813
18.72,0.12431335728999077
18.8,0.11413136389696191
18.88,0.10538156980674256
18.96,0.09877130377356541
19.04,0.09451202001710315
19.12,0.09233774088041882
19.2,0.09164625820530611
19.28,0.09171267199706054
19.36,0.09189864534615268
19.44,0.09178780019184996
19.52,0.09121606963106552
19.6,0.09021412166495832
19.68,0.08891045281556026
19.76,0.08744436404611494
19.84,0.08591498733182183
19.92,0.08436667134590738
20.0,0.08279882909630977
20.080000000000002,0.08118953273198837
20.16,0.07952476898625854
20.240000000000002,0.0778221626702075
20.32,0.07613546054018624
20.400000000000002,0.07453452699091992
20.48,0.07307344292546224
20.56,0.07177089423691119
20.64,0.07061882866294447
20.72,0.06961200487183589
20.8,0.06877269035178493
20.88,0.06814784356519273
20.96,0.06777805364574332
21.04,0.06765989203515689
21.12,0.06772864147172153
21.2,0.06787364438173017
21.28,0.06797558278064138
21.36,0.06794036194012519
21.44,0.06770790282138504
21.52,0.06723370948643378
21.6,0.06646320930564265
21.68,0.06532712494828964
21.76,0.06377246611113116
21.84,0.06181606010332485
21.92,0.05958582668570415
22.0,0.05731636386212742
22.080000000000002,0.0552902245374915
22.16,0.05374783107590607
22.240000000000002,0.052806958792653916
22.32,0.052427738165464303
22.400000000000002,0.05243659150013243
22.48,0.05259578397225104
22.56,0.052686820188432286
22.64,0.05257280254697902
22.72,0.05221748350823341
22.8,0.051660644632773
22.88,0.05096931626531956
22.96,0.05019195255159278
23.04,0.049335574422860934
23.12,0.04837088434407873
23.2,0.04725737460727704
23.28,0.04597477340707514
23.36,0.04454749567430596
23.44,0.043051875849792365
23.52,0.04160131385856995
23.6,0.040313015381869786
23.68,0.03926964527479489
23.76,0.038493910414544266
23.84,0.03794909527315092
23.92,0.037565907057013945
24.0,0.03728341399784345
24.080000000000002,0.03708618273347433
24.16,0.037021858769726974
24.240000000000002,0.037190157709446205
24.32,0.03770305491557712
24.400000000000002,0.03862645205034497
24.48,0.03992409673711794
24.560000000000002,0.04142975851162366
24.64,0.04286766782821334
24.72,0.043923119503333344
24.8,0.04434168161957075
24.88,0.04401805516951603
24.96,0.04303448217571326
25.04,0.041627250341825454
25.12,0.040092070017359795
25.2,0.03866970451981971
25.28,0.03746468864178451
25.36,0.03643340655133069
25.44,0.03544106619242838
25.52,0.03435178986100474
25.6,0.033103336980461015
25.68,0.0317336669934808
25.76,0.03035747679062251
25.84,0.029115818207675562
25.92,0.028127544460043622
26.0,0.027459862722159462
26.080000000000002,0.02711938542054991
26.16,0.027056374954901624
26.240000000000002,0.027175935256358686
26.32,0.027355020496936888
26.400000000000002,0.027466145815782956
26.48,0.027405338965129783
26.560000000000002,0.02711685672987447
26.64,0.026605873903425704
26.72,0.025934558615292334
26.8,0.02520359105081724
26.88,0.024525627842783115
26.96,0.02399763161398419
27.04,0.023677343062525016
27.12,0.023568287252355984
27.2,0.023617819450741023
27.28,0.02373132143058562
27.36,0.023800711761337072
27.44,0.023738487064638422
27.52,0.023504259489997265
27.6,0.0231130830375698
27.68,0.022623155624548582
27.76,0.02210980927156244
27.84,0.021637622587807083
27.92,0.02124099080214447
28.0,0.020917804721123832
28.080000000000002,0.02063515539949686
28.16,0.020343006120806667
28.240000000000002,0.01999144704301091
28.32,0.0195474828731685
28.400000000000002,0.01900703037797297
28.48,0.018397924784078677
28.560000000000002,0.017772215694748503
28.64,0.01719084755348843
28.72,0.016707863152684858
28.8,0.01636093215236569
28.88,0.016169989371060182
28.96,0.01613994453195154
29.04,0.016261557467429716
29.12,0.016508042762197677
29.2,0.01683065139705517
29.28,0.0171595944178679
29.36,0.01741470776724794
29.44,0.017524539281698864
29.52,0.0174467870864633
29.6,0.01718074095631529
29.68,0.01676511338217839
29.76,0.01626139895902903
29.84,0.01573035674077981
29.92,0.015213004632955728
30.0,0.014724839463875568
30.080000000000002,0.014264134399788431
30.16,0.013827260427796766
30.240000000000002,0.013421275598754032
30.32,0.013067618697631022
30.400000000000002,0.012796964605276854
30.48,0.012639367112491348
30.560000000000002,0.012613994917863386
30.64,0.012720999522926848
30.72,0.012937028771958077
30.8,0.013216088078663712
30.88,0.013497117705725223
30.96,0.013717380953943962
31.04,0.013827511527959876
31.12,0.013802573175215698
31.2,0.013645500884031643
31.28,0.013383540051875515
31.36,0.01306129757542735
31.44,0.01273335241367272
31.52,0.012456269957668646
31.6,0.012278199549720016
31.68,0.012226518697528062
31.76,0.012298328222397443
31.84,0.01246015516780627
31.92,0.012659121987067954
32.0,0.012840624899460742
32.08,0.012963227511617775
32.160000000000004,0.013003864937737718
32.24,0.01295360549363686
32.32,0.012810275799525341
32.4,0.012574826315271199
32.480000000000004,0.01225389374538319
32.56,0.011865667714087539
32.64,0.011443599842296951
32.72,0.011033599291527219
32.8,0.010683780961813664
32.88,0.010429755078181814
32.96,0.01028141769928825
33.04,0.010217888120627683
33.12,0.010194580425646627
33.2,0.010160750155473252
33.28,0.010079862787297458
33.36,0.009942669804844562
33.44,0.009766302808249831
33.52,0.009580533657323469
33.6,0.009409746018668794
33.68,0.009261173148043167
33.76,0.009125249058190038
33.84,0.008985896282527885
33.92,0.008832823570848027
34.0,0.008668001175358231
34.08,0.00850351990913074
34.160000000000004,0.008353840408795263
34.24,0.008228066233055123
34.32,0.008126402609307058
34.4,0.00804144919017014
34.480000000000004,0.007962256938013848
34.56,0.007878571863509338
34.64,0.007783817847593199
34.72,0.007676616884716493
34.800000000000004,0.007561004933162069
34.88,0.007445172206807676
34.96,0.007338465541460613
35.04,0.007247140923327439
35.12,0.007170550364598784
35.2,0.007099978979045378
35.28,0.0070213942590244115
35.36,0.006921255433173686
35.44,0.006792649829583048
35.52,0.006638780068072844
35.6,0.00647243645054104
35.68,0.006312324588306446
35.76,0.006178332219123869
35.84,0.0060873777943734365
35.92,0.0060502440601016665
36.0,0.0060691557989458605
36.08,0.006136322245392822
36.160000000000004,0.006234418902875244
36.24,0.006339840349086496
36.32,0.006428247860799329
36.4,0.00648044270707448
36.480000000000004,0.006486217467561078
36.56,0.0064449769719779545
36.64,0.006363725808975944
36.72,0.006254144949968685
36.800000000000004,0.00613021989491334
36.88,0.0060066921783595096
36.96,0.005897625016804809
37.04,0.005814415304099443
37.12,0.005763466989830737
37.2,0.005744530587483786
37.28,0.005750632050986718
37.36,0.005769663176825629
37.44,0.005786914203299407
37.52,0.00578779184625042
37.6,0.0057605423306412865
37.68,0.005699171238224064
37.76,0.005606275084661028
37.84,0.005494431169108552
37.92,0.005384221990505271
38.0,0.0052979454512532
38.08,0.005250549026386172
38.160000000000004,0.005241865572480482
38.24,0.005254765913813821
38.32,0.0052613445153077525
38.4,0.00523485880539618
38.480000000000004,0.005161662801944984
38.56,0.005047245629460812
38.64,0.004913799001501193
38.72,0.004791174503485407
38.800000000000004,0.004705851698779408
38.88,0.004672478418733155
38.96,0.004690593384443923
39.04,0.004746914236976615
39.12,0.004821882912028374
39.2,0.004897906806063312
39.28,0.0049659095259312665
39.36,0.005027080693612283
39.44,0.005088747445240699
39.52,0.005156524183241927
39.6,0.0052273834033910805
39.68,0.005288056531880124
39.76,0.005319995925980012
39.84,0.0053080096294029315
39.92,0.005247450126444342
40.0,0.0051460002757757
40.08,0.00501969786514741
40.160000000000004,0.0048862509577146385
40.24,0.004759650483100498
40.32,0.004648297516992202
40.4,0.004556035702909869
40.480000000000004,0.004483819255431854
40.56,0.0044302399633972716
40.64,0.004390961003711729
40.72,0.004358520949931008
40.800000000000004,0.004323820559198788
40.88,0.004279157679782995
40.96,0.004221228294197476
41.04,0.004152238577614542
41.12,0.004078352141606554
41.2,0.004006325010480773
41.28,0.0039402684484523675
41.36,0.0038803774822975413
41.44,0.0038242713691665755
41.52,0.0037700255539845984
41.6,0.003718955448290058
41.68,0.0036763644492839335
41.76,0.00364971620690914
41.84,0.0036452458187899613
41.92,0.003664879635515467
42.0,0.003704973597829556
42.08,0.003757156364125446
42.160000000000004,0.003810407060893129
42.24,0.003853191551363719
42.32,0.0038750721676070795
42.4,0.0038680208941678463
42.480000000000004,0.0038279176781873996
42.56,0.0037561940887856013
42.64,0.0036608357907423096
42.72,0.003555780579120849
42.800000000000004,0.003458434429526162
42.88,0.003386075290181972
42.96,0.0033524802219018655
43.04,0.003365776142039917
43.12,0.003427638665551352
43.2,0.0035333216195412636
43.28,0.0036720594103921292
43.36,0.0038279172299843104
43.44,0.003981529987031013
43.52,0.004112961048981702
43.6,0.004205299479756262
43.68,0.004248096377626109
43.76,0.004239621666406951
43.84,0.004187137725152447
43.92,0.004104788470114381
44.0,0.004009330059271754
44.08,0.0039148273297648275
44.160000000000004,0.0038282698160282957
44.24,0.003748122891458136
44.32,0.003666680773470026
44.4,0.0035751657464639687
44.480000000000004,0.00346901476830086
44.56,0.0033507572704620514
44.64,0.0032293383148095794
44.72,0.0031166607011966913
44.800000000000004,0.0030233035195949363
44.88,0.0029553310875626067
44.96,0.0029132131917875437
45.04,0.0028928332717246662
45.12,0.002887814200159787
45.2,0.002892049867647059
45.28,0.002901392803493427
45.36,0.002913911140418335
45.44,0.0029288646151139335
45.52,0.002945215259949315
45.6,0.002960685273838068
45.68,0.0029719469828738687
45.76,0.002975725163095397
45.84,0.0029699385984772314
45.92,0.0029539835626253216
46.0,0.0029279453367558536
46.08,0.0028914569814721992
46.160000000000004,0.0028433621461791507
46.24,0.0027828131718303853
46.32,0.0027112311559992705
46.4,0.0026336095129587955
46.480000000000004,0.0025578259587540064
46.56,0.002491951688849605
46.64,0.0024410505109765702
46.72,0.0024054565359733944
46.800000000000004,0.0023815790644210987
46.88,0.002364600899153503
46.96,0.002351250694427147
47.04,0.002340945888802213
47.12,0.0023348354263826553
47.2,0.00233368931754796
47.28,0.002336236485794632
47.36,0.002339099951266174
47.44,0.002338320705762842
47.52,0.002331407198983039
47.6,0.002318562662615674
47.68,0.0023023412799319173
47.76,0.0022860092412409563
47.84,0.0022716684431415765
47.92,0.0022593006797472573
48.0,0.0022473135629524736
48.08,0.0022342757430729616
48.160000000000004,0.0022208055056664212
48.24,0.0022104212389855403
48.32,0.002208697601447946
48.4,0.0022210257182610042
48.480000000000004,0.0022500720697768775
48.56,0.0022941550474841685
48.64,0.002347172898831667
48.72,0.002399909521562122
48.800000000000004,0.0024420947070897744
48.88,0.002464656015927387
48.96,0.002461827509871381
49.04,0.002432784063801305
49.120000000000005,0.0023822713702661286
49.2,0.0023197029086017423
49.28,0.00225669179196886
49.36,0.0022037754707942246
49.44,0.0021676040385878136
49.52,0.0021496699517593344
49.6,0.002146852875140777
49.68,0.002153171475184172
49.76,0.002161724830478662
49.84,0.0021660554972667556
49.92,0.002160810449237365
50.0,0.0021421136457319863
50.08,0.0021081055811786147
50.160000000000004,0.0020596560886181232
50.24,0.002000733903070491
50.32,0.0019378306812152177
50.4,0.0018783448115732536
50.480000000000004,0.0018285554889473955
50.56,0.001792157443511657
50.64,0.0017699855105204367
50.72,0.001760800112420996
50.800000000000004,0.0017624021043642635
50.88,0.0017723022488173173
50.96,0.0017876589007457394
51.04,0.0018048487249660086
51.120000000000005,0.0018194059741393973
51.2,0.0018268828452725795
51.28,0.0018245076049196694
51.36,0.0018127702174647667
51.44,0.0017958129867988101
51.52,0.001780039062069666
51.6,0.0017713954149425892
51.68,0.0017726379602549854
51.76,0.001781957738881618
51.84,0.0017936201584626676
51.92,0.001800261737266622
52.0,0.0017958033264231076
52.08,0.0017778371007325534
52.160000000000004,0.001748688427988393
52.24,0.0017148566166606816
52.32,0.00168501875385107
52.4,0.0016671986280360814
52.480000000000004,0.0016660256298486019
52.56,0.001681101459136778
52.64,0.0017071792040522157
52.72,0.0017361261093539263
52.800000000000004,0.0017597894777366709
52.88,0.0017724279728718005
52.96,0.0017716714033806993
53.04,0.0017578990706955747
53.120000000000005,0.0017328679759635304
53.2,0.001698720868177823
53.28,0.001657975984169207
53.36,0.0016141826687950285
53.44,0.0015723254166953148
53.52,0.0015381995652548764
53.6,0.001516723801571842
53.68,0.0015099513127700892
53.76,0.0015158616998323343
53.84,0.0015286810155760067
53.92,0.0015407165865015393
54.0,0.00154495320530329
54.08,0.001537326977555664
54.160000000000004,0.001517801891317064
54.24,0.0014899553977933437
54.32,0.001459404259483957
54.4,0.0014317869632748058
54.480000000000004,0.0014110616208705602
54.56,0.001398646502879439
54.64,0.0013935613656294974
54.72,0.001393351722159012
54.800000000000004,0.0013953102661186123
54.88,0.0013974498337899794
54.96,0.0013988674389614735
55.04,0.0013994859783865443
