Frequency,PSD
6.057142857142857,0.4390956959179929
6.171428571428571,0.4505298220466739
6.285714285714286,0.46999155307530205
6.3999999999999995,0.4922293896235983
6.514285714285714,0.5141114048973675
6.628571428571428,0.5363458875149525
6.742857142857143,0.5586261476647083
6.857142857142857,0.5747209383675232
6.9714285714285715,0.5767875948193392
7.085714285714285,0.56494591654913
7.2,0.5496367181160389
7.314285714285714,0.5438719551209236
7.428571428571428,0.555038340333722
7.542857142857143,0.585098427159685
7.657142857142857,0.6377059106182971
7.771428571428571,0.7235751501267973
7.885714285714285,0.8577653525272741
8.0,1.0511275027695761
8.114285714285714,1.3029451488911346
8.228571428571428,1.5962503438673639
8.342857142857143,1.8912846278493454
8.457142857142857,2.1219936099634564
8.571428571428571,2.2135671716692853
8.685714285714285,2.123467606815064
8.799999999999999,1.873945379597317
8.914285714285715,1.5433084808685744
9.028571428571428,1.2239450704367383
9.142857142857142,0.9850092020318311
9.257142857142856,0.8655755735254875
9.371428571428572,0.8912790825559276
9.485714285714286,1.0872552058442622
9.6,1.464379907921105
9.714285714285714,1.9784894949053833
9.828571428571427,2.496084722229255
9.942857142857143,2.8211719369023402
10.057142857142857,2.7994483163692414
10.17142857142857,2.426191173031465
10.285714285714285,1.852603870632228
10.4,1.2796534862867672
10.514285714285714,0.8403131062386973
10.628571428571428,0.5622228410630676
10.742857142857142,0.4063345443739369
10.857142857142858,0.32071241952745344
10.971428571428572,0.2687572926895522
11.085714285714285,0.23169086608771505
11.2,0.20184504917531676
11.314285714285713,0.1772849256661816
11.428571428571429,0.15854273907156025
11.542857142857143,0.1459916000967173
11.657142857142857,0.13847806503692317
11.77142857142857,0.13369971199106293
11.885714285714286,0.1292922525900152
12.0,0.12371753535052796
12.114285714285714,0.11674689936317995
12.228571428571428,0.10942499906143724
12.342857142857142,0.10351056333709338
12.457142857142857,0.10047972199855718
12.571428571428571,0.10036583800476634
12.685714285714285,0.1014007954177201
12.799999999999999,0.10125704538641836
12.914285714285715,0.09892664969459355
13.028571428571428,0.09534573036476282
13.142857142857142,0.09237377496908919
13.257142857142856,0.09147492415201566
13.371428571428572,0.0932616565472833
13.485714285714286,0.09769756394901383
13.6,0.10404005168887176
13.714285714285714,0.11034672077114437
13.828571428571427,0.113638691791674
13.942857142857143,0.11162391946264136
14.057142857142857,0.10482580675772223
14.17142857142857,0.09665905510655348
14.285714285714285,0.09086264874135093
14.4,0.08883541336548098
14.514285714285714,0.08963350322263941
14.628571428571428,0.09219598421298074
14.742857142857142,0.09687814525081462
14.857142857142856,0.10462114547637338
14.971428571428572,0.11506432624770914
15.085714285714285,0.12592150037807387
15.2,0.13443545116361982
15.314285714285713,0.139572442859663
15.428571428571429,0.14262625518770117
15.542857142857143,0.14541404499012814
15.657142857142857,0.14824080092009087
15.77142857142857,0.15020863079035646
15.885714285714284,0.15120900414884159
16.0,0.1528511800389147
16.114285714285714,0.15742513362842964
16.228571428571428,0.16627691205483514
16.34285714285714,0.17875653606398229
16.457142857142856,0.19201874323942866
16.57142857142857,0.20205672767754604
16.685714285714287,0.20585794669312113
16.8,0.2031166123468896
16.914285714285715,0.19607619943822974
17.02857142857143,0.1880084186825805
17.142857142857142,0.18157247079422834
17.257142857142856,0.1775977884284438
17.37142857142857,0.17488707554637561
17.485714285714284,0.17156593252830044
17.599999999999998,0.16676223088941125
17.714285714285715,0.1605969687421434
17.82857142857143,0.15272479688996218
17.942857142857143,0.1417696434778356
18.057142857142857,0.1267537828799268
18.17142857142857,0.10894656381597297
18.285714285714285,0.09195042050105279
18.4,0.07966213826796159
18.514285714285712,0.07380611825361891
18.628571428571426,0.07310252022029115
18.742857142857144,0.07466340185271222
18.857142857142858,0.07636033147018871
18.97142857142857,0.07825681205380595
19.085714285714285,0.08207226571088418
19.2,0.08921493452337385
19.314285714285713,0.09904591574621938
19.428571428571427,0.10887149353869517
19.54285714285714,0.11573603775143276
19.657142857142855,0.11851212821083418
19.771428571428572,0.11844605254780088
19.885714285714286,0.11759943452624087
20.0,0.11657375049459238
20.114285714285714,0.11381969952349369
20.228571428571428,0.1073898538328859
20.34285714285714,0.09725710426610959
20.457142857142856,0.08563072119027954
20.57142857142857,0.07513591412295656
20.685714285714287,0.06700829740213367
20.8,0.060865350092828084
20.914285714285715,0.055708362153726765
21.02857142857143,0.05105379142944781
21.142857142857142,0.047397757823467584
21.257142857142856,0.04569617548593142
21.37142857142857,0.04626660723167457
21.485714285714284,0.0481222636550514
21.599999999999998,0.04938846987115004
21.714285714285715,0.0484638883194466
21.82857142857143,0.04499583889680028
21.942857142857143,0.03994243692492115
22.057142857142857,0.03480247830469237
22.17142857142857,0.030776402211262488
22.285714285714285,0.028421971877287764
22.4,0.027689547543779152
22.514285714285712,0.028053779103057362
22.628571428571426,0.02874621452311766
22.742857142857144,0.02910498214590885
22.857142857142858,0.02882777975296047
22.97142857142857,0.02798533784725865
23.085714285714285,0.0269252428023271
23.2,0.02617390611658029
23.314285714285713,0.026227614034696936
23.428571428571427,0.027215523555708162
23.54285714285714,0.02874020016550929
23.657142857142855,0.030147528270036125
23.771428571428572,0.030983082048977782
23.885714285714286,0.03115655024970415
24.0,0.030735099676595903
24.114285714285714,0.029755088830454895
24.228571428571428,0.028314317281635696
24.34285714285714,0.026715600715786183
24.457142857142856,0.02535370369527357
24.57142857142857,0.024459753796368666
24.685714285714283,0.024013365839144214
24.8,0.023844439288886368
24.914285714285715,0.023745902560562915
25.02857142857143,0.023555597403906087
25.142857142857142,0.023237045514600235
25.257142857142856,0.022878958611800837
25.37142857142857,0.022571994154484173
25.485714285714284,0.022310293621231804
25.599999999999998,0.022053427391402276
25.71428571428571,0.02183771327077972
25.82857142857143,0.021725777742560896
25.942857142857143,0.021639754162304327
26.057142857142857,0.021369746490883267
26.17142857142857,0.020837439731316753
26.285714285714285,0.020284154163301697
26.4,0.020080098811577102
26.514285714285712,0.020318100907943146
26.628571428571426,0.020629648490657924
26.742857142857144,0.020416286927037425
26.857142857142858,0.019279659887876433
26.97142857142857,0.01730674804389453
27.085714285714285,0.015028198191737337
27.2,0.013098948964140548
27.314285714285713,0.01193526251277977
27.428571428571427,0.011562533738674056
27.54285714285714,0.011720056231005329
27.657142857142855,0.012061782381367219
27.771428571428572,0.01231465201924537
27.885714285714286,0.012366355787283775
28.0,0.012266167602283376
28.114285714285714,0.012134260087117068
28.228571428571428,0.012063607436850456
28.34285714285714,0.012110513687898162
28.457142857142856,0.012343090396930906
28.57142857142857,0.012844120671710096
28.685714285714283,0.013662215296769035
28.8,0.014801814397846027
28.914285714285715,0.01626888601853724
29.02857142857143,0.018069548718888138
29.142857142857142,0.02010172339071968
29.257142857142856,0.022036509591172822
29.37142857142857,0.02334711229332646
29.485714285714284,0.02353819699211043
29.599999999999998,0.022460156779947126
29.71428571428571,0.020486366572884034
29.82857142857143,0.018368882087894098
29.942857142857143,0.0168104427000594
30.057142857142857,0.016066266250893167
30.17142857142857,0.015892216110600335
30.285714285714285,0.015824340954500825
30.4,0.015510450622915502
30.514285714285712,0.014871359338750579
30.628571428571426,0.01404976900182732
30.74285714285714,0.013235216306967518
30.857142857142858,0.012528839206917827
30.97142857142857,0.011950034021231962
31.085714285714285,0.011510454351985923
31.2,0.011232632010728001
31.314285714285713,0.011114814024247303
31.428571428571427,0.01110981343475257
31.54285714285714,0.011135448277006705
31.657142857142855,0.011105450357150524
31.77142857142857,0.010980600210368717
31.885714285714286,0.010820415643852265
32.0,0.010778137761600618
32.114285714285714,0.010994774837689432
32.22857142857143,0.011445829188315694
32.34285714285714,0.011892953327562118
32.457142857142856,0.012033169762785062
32.57142857142857,0.011734592460377873
32.68571428571428,0.011138462828139118
32.8,0.01053692596557996
32.91428571428571,0.010161469152196286
33.028571428571425,0.0100832077637718
33.14285714285714,0.010258796135723487
33.25714285714285,0.010585496116308204
33.371428571428574,0.010899561499041503
33.48571428571429,0.011016515127554747
33.6,0.010856618197141853
33.714285714285715,0.010517027128557552
33.82857142857143,0.010191280376418761
33.94285714285714,0.01004196617762327
34.05714285714286,0.010150301945469948
34.17142857142857,0.010511834538776186
34.285714285714285,0.011017799594357702
34.4,0.01145827632994604
34.51428571428571,0.011601141232576023
34.628571428571426,0.011325557191301863
34.74285714285714,0.010721240007797714
34.857142857142854,0.01005811388985993
34.97142857142857,0.009619453541949284
35.08571428571428,0.009521072966157333
35.199999999999996,0.00965823341172162
35.31428571428572,0.009799582482569675
35.42857142857143,0.009739674061537577
35.542857142857144,0.00943039623255974
35.65714285714286,0.009035516807918297
35.77142857142857,0.008832037509095742
35.885714285714286,0.008969860682501366
36.0,0.0092996302357615
36.114285714285714,0.009472070495480907
36.22857142857143,0.009214922799728265
36.34285714285714,0.00850339649907457
36.457142857142856,0.007516841811502684
36.57142857142857,0.006518527624903432
36.68571428571428,0.0057726085759841365
36.8,0.00547275184689801
36.91428571428571,0.005663932704004934
37.028571428571425,0.00621312544325648
37.14285714285714,0.0068631870753362596
37.25714285714285,0.0073397599604496785
37.371428571428574,0.0074623993746223425
37.48571428571429,0.007215493308029815
37.6,0.006740867426304744
37.714285714285715,0.006250371382331911
37.82857142857143,0.005910494660983485
37.94285714285714,0.0057650192185009705
38.05714285714286,0.005732298037159267
38.17142857142857,0.0056795257184786615
38.285714285714285,0.0055320120499725775
38.4,0.00533359096825407
38.51428571428571,0.00521085907912492
38.628571428571426,0.005285726922141027
38.74285714285714,0.005602007189448648
38.857142857142854,0.00609173632922308
38.97142857142857,0.006602691451434024
39.08571428571428,0.00699345350466696
39.199999999999996,0.007220775206938152
39.31428571428571,0.007326657736443643
39.42857142857143,0.0073589278398431155
39.542857142857144,0.0073470652797336545
39.65714285714286,0.007349457299651958
39.77142857142857,0.007454106715339393
39.885714285714286,0.007683594325087408
40.0,0.007927440389594718
40.114285714285714,0.008018926252101754
40.22857142857143,0.007884730908448784
40.34285714285714,0.007597937998577837
40.457142857142856,0.007284387153862211
40.57142857142857,0.006998682357911977
40.68571428571428,0.006702808591174483
40.8,0.006352251237228125
40.91428571428571,0.00597697276660414
41.028571428571425,0.005663126614929296
41.14285714285714,0.005467607346227223
41.25714285714285,0.0053781667886468165
41.371428571428574,0.005365945770249241
41.48571428571429,0.005450676947341464
41.6,0.00568213786617887
41.714285714285715,0.006057630811300677
41.82857142857143,0.006479498634279994
41.94285714285714,0.006801870737230658
42.05714285714286,0.006920913947956239
42.17142857142857,0.006837038142282681
42.285714285714285,0.006642446835750012
42.4,0.006442791440879411
42.51428571428571,0.006290204704621346
42.628571428571426,0.006192012438020287
42.74285714285714,0.006155376704362153
42.857142857142854,0.006190142526672598
42.97142857142857,0.0062776244158292156
43.08571428571428,0.006368652290357298
43.199999999999996,0.0064173181342411754
43.31428571428571,0.006406309107760042
43.42857142857143,0.0063476312179954145
43.542857142857144,0.006264877508888603
43.65714285714286,0.006156446327287577
43.77142857142857,0.005972026087800583
43.885714285714286,0.005653817538986885
44.0,0.005213576121352913
44.114285714285714,0.004752120575590938
44.22857142857143,0.004398812523059661
44.34285714285714,0.004239841979614283
44.457142857142856,0.00429073727464014
44.57142857142857,0.00451039449872414
44.68571428571428,0.004831261133271565
44.8,0.005182005826100583
44.91428571428571,0.005493337748392128
45.028571428571425,0.005706791804121438
45.14285714285714,0.005803878292283279
45.25714285714285,0.005822437430530457
45.37142857142857,0.005819938017444698
45.48571428571429,0.005817841710819828
45.6,0.0057973026391693735
45.714285714285715,0.005746958584583095
45.82857142857143,0.005694580641780814
45.94285714285714,0.005677840970380668
46.05714285714286,0.005684581414312274
46.17142857142857,0.0056381184491389935
46.285714285714285,0.00546814281067284
46.4,0.005207314518438327
46.51428571428571,0.004999103946708473
46.628571428571426,0.004985101282556283
46.74285714285714,0.005176168885874953
46.857142857142854,0.005438295632607339
46.97142857142857,0.005607026292581039
47.08571428571428,0.005611555836332909
47.199999999999996,0.005493143531493356
47.31428571428571,0.005335464706920319
47.42857142857143,0.005207358764795301
47.542857142857144,0.005155031650787555
47.65714285714286,0.005196983364550125
47.77142857142857,0.0052962682734953625
47.885714285714286,0.0053542764924260685
48.0,0.005271818604067172
48.114285714285714,0.005042373723856398
48.22857142857143,0.0047775173170443675
48.34285714285714,0.0046201394625840254
48.457142857142856,0.004627555884007856
48.57142857142857,0.004737423926721145
48.68571428571428,0.004835462414920992
48.8,0.00485568738981579
48.91428571428571,0.004830032884015762
49.028571428571425,0.004850327822170741
49.14285714285714,0.004993195298906178
49.25714285714285,0.00531779256696383
49.37142857142857,0.006003894605332632
49.48571428571429,0.007572625267455956
49.6,0.010940530060193918
49.714285714285715,0.016887797306252103
49.82857142857143,0.024864812971686478
49.94285714285714,0.03219352587833757
50.05714285714286,0.0352354184409986
50.17142857142857,0.032197844183743614
50.285714285714285,0.024749481195629617
50.4,0.01655675875962431
50.51428571428571,0.010455480448650526
50.628571428571426,0.007121245780268115
50.74285714285714,0.0057526299995958345
50.857142857142854,0.005300939397674871
50.97142857142857,0.005117195959912891
51.08571428571428,0.0049729634787899
51.199999999999996,0.004847699607589501
51.31428571428571,0.004766459864471588
51.42857142857142,0.004756576825869588
51.542857142857144,0.0048534152631445615
51.65714285714286,0.0050774528819252105
51.77142857142857,0.0053907112174747095
51.885714285714286,0.005692937898379156
52.0,0.005871703966606157
52.114285714285714,0.00586170775124796
52.22857142857143,0.005676542785857489
52.34285714285714,0.005406456310183186
52.457142857142856,0.005181295203164222
52.57142857142857,0.005105111021363871
52.68571428571428,0.00519307537809157
52.8,0.005355758369182643
52.91428571428571,0.0054548310707064115
53.028571428571425,0.005398080890198852
53.14285714285714,0.0051978612980372214
53.25714285714285,0.0049479449373468765
53.37142857142857,0.004752562629206376
53.48571428571429,0.0046716020287219905
53.6,0.004707097526732805
53.714285714285715,0.00481397381588663
53.82857142857143,0.004915131063999132
53.94285714285714,0.004924932774223807
54.05714285714286,0.004792403838359215
54.17142857142857,0.00454291247800862
54.285714285714285,0.004274171969644703
54.4,0.004098868861031541
54.51428571428571,0.0040785699859152555
54.628571428571426,0.004196000519562722
54.74285714285714,0.00437670185145803
54.857142857142854,0.004539879391410452
54.97142857142857,0.004642514088536317
55.08571428571428,0.004685815205130676
