Frequency,PSD
6.0,0.4548032457027779
6.08,0.4544484803167164
6.16,0.4537922045144658
6.24,0.45292874551446344
6.32,0.4519735647492684
6.4,0.4510427737347716
6.48,0.45023942886172874
6.5600000000000005,0.4496513522378267
6.640000000000001,0.4493608905195951
6.72,0.4494624456474916
6.8,0.45008032468251014
6.88,0.4513785147646877
6.96,0.4535556932612951
7.04,0.4568226687261846
7.12,0.461364477495091
7.2,0.4672942039656095
7.28,0.4746089295162844
7.36,0.4831590282134846
7.44,0.49263987458368985
7.5200000000000005,0.5026102421197551
7.6000000000000005,0.5125353888640191
7.68,0.5218467645825454
7.76,0.5300062382176055
7.84,0.5365620118431367
7.92,0.5411862003173353
8.0,0.5436894635426807
8.08,0.5440142427708504
8.16,0.5422130282180464
8.24,0.5384202044959719
8.32,0.5328250497080299
8.4,0.5256502875504983
8.48,0.5171368780555062
8.56,0.5075331745729059
8.64,0.4970861376914246
8.72,0.4860338124786618
8.8,0.47460056341584905
8.88,0.46299802748736235
8.96,0.45143418282269027
9.040000000000001,0.4401301503465705
9.120000000000001,0.42934034220788975
9.200000000000001,0.4193681175154213
9.28,0.4105679699774217
9.36,0.40332739795687667
9.44,0.3980266574538889
9.52,0.39498106245003983
9.6,0.39437631113041777
9.68,0.39621068511699464
9.76,0.4002579982614443
9.84,0.4060620450414862
9.92,0.4129679797705662
10.0,0.4201897560380078
10.08,0.42690648477669285
10.16,0.43237502533990285
10.24,0.4360418742925726
10.32,0.43763517161589827
10.4,0.4372183216159819
10.48,0.43519115184603613
10.56,0.4322328728365089
10.64,0.4291923347223604
10.72,0.42694288222060445
10.8,0.42622835032583384
10.88,0.4275304618163345
10.96,0.43098443042934115
11.040000000000001,0.4363593620369137
11.120000000000001,0.44310562576316537
11.200000000000001,0.45045665571190274
11.28,0.4575616432169269
11.36,0.463621041117851
11.44,0.4679993693242201
11.52,0.47029795878216013
11.6,0.47038102615464217
11.68,0.46835858740853453
11.76,0.4645367930749399
11.84,0.45934936933030646
11.92,0.45328346949372533
12.0,0.44681072033748664
12.08,0.4403310238506913
12.16,0.4341337199015369
12.24,0.42837835625480464
12.32,0.4230953975603651
12.4,0.4182054211937677
12.48,0.4135534944887323
12.56,0.4089535435300512
12.64,0.4042358777656051
12.72,0.3992900454593895
12.8,0.394095316074941
12.88,0.38873266546106433
12.96,0.38337525204593853
13.040000000000001,0.3782586573340774
13.120000000000001,0.3736367673187484
13.200000000000001,0.36973287232908575
13.280000000000001,0.3666971187424749
13.36,0.36458006556697775
13.44,0.36332785843290466
13.52,0.36279852635494136
13.6,0.3627929946410834
13.68,0.36309060556930994
13.76,0.3634786411939584
13.84,0.36376870843660225
13.92,0.36379863490139935
14.0,0.3634245074375853
14.08,0.36251131248487084
14.16,0.36093079572856346
14.24,0.35857162069305365
14.32,0.3553611504137555
14.4,0.3512925641785539
14.48,0.346447798464525
14.56,0.3410071771611267
14.64,0.33524030403783767
14.72,0.3294782971029683
14.8,0.32407267389629046
14.88,0.31934940661399336
14.96,0.3155670850927468
15.040000000000001,0.3128861082415573
15.120000000000001,0.31135252018624726
15.200000000000001,0.3108968560857576
15.280000000000001,0.31134611178673394
15.36,0.31244594462470365
15.44,0.3138900499237045
15.52,0.3153536583847047
15.6,0.31652776577642605
15.68,0.3171500494974763
15.76,0.3170279845879158
15.84,0.3160501972281833
15.92,0.31418406440422364
16.0,0.3114607817214505
16.080000000000002,0.3079526169100468
16.16,0.30374946601443514
16.240000000000002,0.2989419629559565
16.32,0.29361591171274815
16.4,0.2878584585291565
16.48,0.2817718050975123
16.56,0.27548719230859553
16.64,0.2691715923471747
16.72,0.2630221593207365
16.8,0.25724797719715503
16.88,0.2520432810742822
16.96,0.24755940936124937
17.04,0.24388324814456597
17.12,0.24102783956393395
17.2,0.2389370353439303
17.28,0.2375019632896053
17.36,0.23658397711230944
17.44,0.23603755192110593
17.52,0.2357274709751336
17.6,0.23553717612701014
17.68,0.23536842042616124
17.76,0.23513529335075645
17.84,0.23475735821075977
17.92,0.23415653579527226
18.0,0.2332605569723495
18.080000000000002,0.23201293040191193
18.16,0.2303864427794901
18.240000000000002,0.22839527136470417
18.32,0.22610054775094113
18.400000000000002,0.2236057833900722
18.48,0.22104144074344492
18.56,0.21854116824132616
18.64,0.2162147870628306
18.72,0.2141242677983138
18.8,0.212268406447598
18.88,0.21057996255105232
18.96,0.20893627423623112
19.04,0.20718153267983214
19.12,0.20515657322519287
19.2,0.20273057874664696
19.28,0.19982863549851596
19.36,0.19644965038544002
19.44,0.19267068998489498
19.52,0.1886362181175829
19.6,0.18453370909193823
19.68,0.1805601754583625
19.76,0.1768865365167605
19.84,0.1736276988838861
19.92,0.17082521316471175
20.0,0.16844643580578095
20.080000000000002,0.16639993805899822
20.16,0.1645626539265876
20.240000000000002,0.1628112738571833
20.32,0.16104965409257077
20.400000000000002,0.15922576591194337
20.48,0.157335326042212
20.56,0.15541343857015394
20.64,0.15351887046628568
20.72,0.1517168967467544
20.8,0.15006571164160973
20.88,0.14860882418090776
20.96,0.14737286305108294
21.04,0.14636810389351915
21.12,0.1455886233877402
21.2,0.14501029170315863
21.28,0.14458707310611352
21.36,0.14424814033852248
21.44,0.1438990805124688
21.52,0.14342953657780114
21.6,0.1427273346460533
21.68,0.14169646107332393
21.76,0.14027432730748263
21.84,0.13844343014830843
21.92,0.1362339505413134
22.0,0.13371649455775647
22.080000000000002,0.13098707003076165
22.16,0.12814848739653156
22.240000000000002,0.1252930229203077
22.32,0.1224903190319896
22.400000000000002,0.11978258772697797
22.48,0.11718698054876558
22.56,0.11470320693730827
22.64,0.11232355212689399
22.72,0.11004242817954105
22.8,0.10786325822525013
22.88,0.10580149276391007
22.96,0.10388357414008773
23.04,0.10214250883266147
23.12,0.10061129991366212
23.2,0.09931581398439367
23.28,0.09826869364991442
23.36,0.09746566212544784
23.44,0.09688501849172618
23.52,0.09649038318062575
23.6,0.0962359974225799
23.68,0.09607331567712765
23.76,0.09595741751988865
23.84,0.09585194810045952
23.92,0.09573177997639772
24.0,0.09558318812188668
24.080000000000002,0.0954018531270858
24.16,0.09518933880652204
24.240000000000002,0.09494882026527487
24.32,0.09468083545799262
24.400000000000002,0.09437977676575501
24.48,0.09403175852955734
24.560000000000002,0.09361435567032873
24.64,0.09309844481175039
24.72,0.09245197124989821
24.8,0.0916449827527473
24.88,0.09065487076416336
24.96,0.08947061713676022
25.04,0.08809506153459762
25.12,0.08654474007176768
25.2,0.08484751722966109
25.28,0.08303879301436817
25.36,0.08115731627486839
25.44,0.0792415131224353
25.52,0.07732684698191448
25.6,0.07544426681707297
25.68,0.0736194740176749
25.76,0.07187265302052034
25.84,0.07021844054461995
25.92,0.0686661271101739
26.0,0.06722024126954142
26.080000000000002,0.06588166372743497
26.16,0.06464925241541236
26.240000000000002,0.06352171491154282
26.32,0.06249926598926357
26.400000000000002,0.06158456116984742
26.48,0.06078254336211731
26.560000000000002,0.06009914118578022
26.64,0.059539114477920235
26.72,0.05910363235454355
26.8,0.05878829280163291
26.88,0.05858220859719762
26.96,0.05846851967345949
27.04,0.05842632759056866
27.12,0.05843368487039227
27.2,0.05847099754945135
27.28,0.0585240652693557
27.36,0.05858600520192582
27.44,0.05865747643271458
27.52,0.05874492157609047
27.6,0.058856943536048055
27.68,0.05899938656859726
27.76,0.059170107216796615
27.84,0.059354687711589416
27.92,0.05952434760213631
28.0,0.05963698237123832
28.080000000000002,0.059641626791460574
28.16,0.059485839409377586
28.240000000000002,0.05912474438636371
28.32,0.05852996967210089
28.400000000000002,0.057696638159085364
28.48,0.05664692650941448
28.560000000000002,0.05542939583303951
28.64,0.05411412122317376
28.72,0.05278439322302034
28.8,0.05152628491779037
28.88,0.050417623144626694
28.96,0.04951790657290115
29.04,0.04886054872942463
29.12,0.04844854392016308
29.2,0.04825426710386546
29.28,0.04822360550272829
29.36,0.04828398092877952
29.44,0.04835512726855046
29.52,0.0483608888757004
29.6,0.0482399956289993
29.68,0.04795390229698525
29.76,0.04749038440265075
29.84,0.04686252890644621
29.92,0.04610378286206902
30.0,0.04526052410119366
30.080000000000002,0.044383966968130004
30.16,0.04352304522921514
30.240000000000002,0.042719334533681715
30.32,0.04200432469679369
30.400000000000002,0.041398691020549314
30.48,0.04091283534945567
30.560000000000002,0.040547932325167624
30.64,0.04029695382631777
30.72,0.040145502207142955
30.8,0.040072597257160635
30.88,0.040051720610089186
30.96,0.04005239439230709
31.04,0.04004240373502038
31.12,0.03999055318709528
31.2,0.0398696625414153
31.28,0.03965941187246202
31.36,0.03934864625338496
31.44,0.03893681931151645
31.52,0.038434351901288806
31.6,0.03786178205606727
31.68,0.03724768539965265
31.76,0.036625470595369206
31.84,0.03602931830724401
31.92,0.0354897240684367
32.0,0.03502927854464911
32.08,0.03465940206907545
32.160000000000004,0.034378679906422495
32.24,0.034173197787232504
32.32,0.03401889299291397
32.4,0.033885509946319885
32.480000000000004,0.03374140109742444
32.56,0.03355824554097408
32.64,0.03331481552412508
32.72,0.03299918112692668
32.8,0.0326091248699209
32.88,0.03215093437068276
32.96,0.03163705654948497
33.04,0.031083270823428023
33.12,0.030506052860832383
33.2,0.029920670312852532
33.28,0.029340314045803815
33.36,0.028776272124268875
33.44,0.028238859531886377
33.52,0.02773859387863857
33.6,0.02728702368333437
33.68,0.02689671381458576
33.76,0.026580163642767496
33.84,0.026347804710240442
33.92,0.026205574596961233
34.0,0.026152764667871302
34.08,0.026180812313685593
34.160000000000004,0.026273459920443137
34.24,0.026408325718404756
34.32,0.026559563739959997
34.4,0.026701053396959995
34.480000000000004,0.02680950955506193
34.56,0.02686701676203821
34.64,0.026862687278880845
34.72,0.026793336507151735
34.800000000000004,0.02666321185384394
34.88,0.02648290123231388
34.96,0.026267613882061287
35.04,0.02603509234335901
35.12,0.02580347293456821
35.2,0.02558942598250492
35.28,0.025406836323785147
35.36,0.02526612095075393
35.44,0.025174067591942184
35.52,0.02513390103199427
35.6,0.02514523316725657
35.68,0.025203675177171894
35.76,0.02530015665843155
35.84,0.025420302425745302
35.92,0.025544420616962438
36.0,0.025648637012056504
36.08,0.025707432707286475
36.160000000000004,0.0256973764641083
36.24,0.025601349588063142
36.32,0.025412230228737828
36.4,0.025134979319384278
36.480000000000004,0.024786389782656095
36.56,0.024392338582911892
36.64,0.023983040598668553
36.72,0.02358734120396971
36.800000000000004,0.023227343254778363
36.88,0.022914579883790732
36.96,0.022648557308760506
37.04,0.022417921360689173
37.12,0.022203902042367725
37.2,0.021985205792284645
37.28,0.021743255314146073
37.36,0.021466662908827157
37.44,0.021154047190795788
37.52,0.02081469834674485
37.6,0.020467066246842875
37.68,0.020135482631156783
37.76,0.019845842450016363
37.84,0.019621105397472464
37.92,0.019477429060506337
38.0,0.019421546807638104
38.08,0.01944972240646904
38.160000000000004,0.019548321760031122
38.24,0.01969579859741827
38.32,0.019865728701257586
38.4,0.020030453627392142
38.480000000000004,0.020164897851549977
38.56,0.020250179732687747
38.64,0.02027671825162626
38.72,0.02024661388929309
38.800000000000004,0.020175124776224723
38.88,0.020091049262139452
38.96,0.02003576563989848
39.04,0.020060604981630543
39.12,0.020222217420759976
39.2,0.02057573174082912
39.28,0.021165882869082595
39.36,0.022016901363575814
39.44,0.02312271390034156
39.52,0.02443965547660913
39.6,0.025884127667152618
39.68,0.027337178352490697
39.76,0.028656736258034395
39.84,0.029696405591946064
39.92,0.03032779537580313
40.0,0.030461959066587184
40.08,0.03006520583625355
40.160000000000004,0.02916555157645306
40.24,0.027848195725199143
40.32,0.026241031642539082
40.4,0.02449353135270959
40.480000000000004,0.02275370366624716
40.56,0.021147869092115683
40.64,0.019766828634488906
40.72,0.018660092570044962
40.800000000000004,0.017837807315545164
40.88,0.017278435204982664
40.96,0.016939435191207046
41.04,0.016768210239875604
41.12,0.016711242749401497
41.2,0.016720319167013272
41.28,0.016755724544870332
41.36,0.016787018703150313
41.44,0.01679236019974273
41.52,0.016757320431083113
41.6,0.01667382764376532
41.68,0.01653945859161233
41.76,0.016356921652696584
41.84,0.01613337642482825
41.92,0.01587926234436051
42.0,0.015606527453010588
42.08,0.015326454362268203
42.160000000000004,0.015047542508216912
42.24,0.014774014207305933
42.32,0.014505417485015581
42.4,0.014237527222582562
42.480000000000004,0.013964386357131738
42.56,0.013680997535158645
42.64,0.013385976732611738
42.72,0.013083471656349654
42.800000000000004,0.012783825778037508
42.88,0.012502775352998445
42.96,0.012259311815999941
43.04,0.012072634357948074
43.12,0.01195879179504442
43.2,0.01192764435365621
43.28,0.011980680655632146
43.36,0.012110046406376366
43.44,0.012298930348259348
43.52,0.012523251430760001
43.6,0.01275442145646081
43.68,0.012962825278644997
43.76,0.013121564606243096
43.84,0.013209954862426453
43.92,0.013216260852073579
44.0,0.013139225691999106
44.08,0.012988101313882528
44.160000000000004,0.012781119745432848
44.24,0.012542616242217468
44.32,0.012299269773280285
44.4,0.012076099949617659
44.480000000000004,0.011892905582593085
44.56,0.01176173519258577
44.64,0.011685767678437393
44.72,0.011659703883209107
44.800000000000004,0.011671490123727896
44.88,0.011704970243007033
44.96,0.01174293310065709
45.04,0.011770004514636973
45.12,0.01177492027028995
45.2,0.011751883145162132
45.28,0.011700909848629025
45.36,0.01162726477494806
45.44,0.01154021400724855
45.52,0.011451391616092493
45.6,0.011373054235729154
45.68,0.01131643659895344
45.76,0.011290348483862763
45.84,0.011300103250715043
45.92,0.011346849057540477
46.0,0.01142737105674971
46.08,0.011534418121260104
46.160000000000004,0.011657557450505465
46.24,0.011784471913088975
46.32,0.011902510968705296
46.4,0.012000226289714316
46.480000000000004,0.012068606549447908
46.56,0.012101791040507954
46.64,0.012097176615350055
46.72,0.012054995825801947
46.800000000000004,0.011977580872342998
46.88,0.011868590153794193
46.96,0.011732440513435296
47.04,0.011574072925264163
47.12,0.011399026718984474
47.2,0.011213664406254072
47.28,0.01102532289859885
47.36,0.010842187467105854
47.44,0.010672779894957147
47.52,0.010525085292030032
47.6,0.010405468344937049
47.68,0.010317613104963048
47.76,0.010261742344785003
47.84,0.010234332783461428
47.92,0.010228453139683171
48.0,0.010234730823067912
48.08,0.010242820513933345
48.160000000000004,0.010243127392282675
48.24,0.010228456526959967
48.32,0.010195245288212931
48.4,0.010144106041052384
48.480000000000004,0.010079559678621407
48.56,0.010009046327316504
48.64,0.00994150149409915
48.72,0.009885916599065838
48.800000000000004,0.009850306931113934
48.88,0.00984136769230654
48.96,0.009864839353563208
49.04,0.009926303563873957
49.120000000000005,0.01003189463558641
49.2,0.010188339044942714
49.28,0.010401885620216983
49.36,0.010676051413597903
49.44,0.01100859121988331
49.52,0.011388546197788627
49.6,0.011794462690446145
49.68,0.012194762877645099
49.76,0.01255076562704023
49.84,0.012822107153101087
49.92,0.012973524054192215
50.0,0.01298141039800387
50.08,0.01283846430961284
50.160000000000004,0.012555167918958266
50.24,0.012157679582178163
50.32,0.011682689758132575
50.4,0.011170581901511628
50.480000000000004,0.010658598777828626
50.56,0.010175556228955848
50.64,0.0097390675105448
50.72,0.009355469958816816
50.800000000000004,0.009021943868035669
50.88,0.008729879482869754
50.96,0.008468458332806933
51.04,0.00822762107598747
51.120000000000005,0.00799996481759227
51.2,0.0077814987120245795
51.28,0.0075714734545884
51.36,0.007371637768231083
51.44,0.007185274746309041
51.52,0.007016283000701572
51.6,0.006868450749624045
51.68,0.006744969479498359
51.76,0.006648167573412205
51.84,0.006579412258812187
51.92,0.006539118863398002
52.0,0.006526808300846756
52.08,0.006541161403702898
52.160000000000004,0.006580032221512582
52.24,0.006640403411070864
52.32,0.006718294716056756
52.4,0.006808665627388243
52.480000000000004,0.006905378027815827
52.56,0.0070012957474239286
52.64,0.0070885889110306475
52.72,0.007159278401841994
52.800000000000004,0.00720600107182934
52.88,0.007222907328728917
52.96,0.007206534943346773
53.04,0.007156458354213597
53.120000000000005,0.007075514508232857
53.2,0.006969469344578795
53.28,0.006846110459790807
53.36,0.006713905283910358
53.44,0.00658050514764588
53.52,0.006451453464384168
53.6,0.006329434296220588
53.68,0.006214269929917023
53.76,0.006103674041971943
53.84,0.005994551083261829
53.92,0.005884472065968694
54.0,0.005772905266357233
54.08,0.00566185488198993
54.160000000000004,0.005555736526990502
54.24,0.005460537883420426
54.32,0.005382506582968997
54.4,0.005326719177821721
54.480000000000004,0.005295889667581671
54.56,0.00528968466027461
54.64,0.0053046641331907
54.72,0.005334812119589248
54.800000000000004,0.005372503198648808
54.88,0.005409691079814287
54.96,0.005439104401304922
55.04,0.005455274330852036
