Frequency,PSD
6.0,0.5192155720055056
6.08,0.5194546370581726
6.16,0.5199320496556931
6.24,0.5206463743695955
6.32,0.5215954570678333
6.4,0.5227764238467457
6.48,0.5241856798038761
6.5600000000000005,0.5258189078168938
6.640000000000001,0.5276710675308207
6.72,0.5297363947898117
6.8,0.5320084017803189
6.88,0.5344798781790419
6.96,0.5371428936210718
7.04,0.5399888018205931
7.12,0.543008246687913
7.2,0.5461911707920473
7.28,0.5495268265171895
7.36,0.5530037902538721
7.44,0.5566099799512024
7.5200000000000005,0.5603326763351686
7.6000000000000005,0.5641585480695478
7.68,0.5680736811005529
7.76,0.5720636123841993
7.84,0.5761133681468036
7.92,0.5802075067745073
8.0,0.5843301663678582
8.08,0.58846511693301
8.16,0.5925958171129071
8.24,0.5967054752908684
8.32,0.6007771148263938
8.4,0.6047936431099843
8.48,0.6087379240515347
8.56,0.6125928535467852
8.64,0.616341437399716
8.72,0.6199668711170208
8.8,0.6234526209351757
8.88,0.6267825053924468
8.96,0.6299407767185563
9.040000000000001,0.6329122012847674
9.120000000000001,0.6356821383377099
9.200000000000001,0.6382366162321158
9.28,0.6405624053812792
9.36,0.6426470871598511
9.44,0.6444791180215836
9.52,0.6460478881347453
9.6,0.6473437738897272
9.68,0.6483581836962266
9.76,0.6490835965604922
9.84,0.6495135930153256
9.92,0.649642878065606
10.0,0.6494672959085745
10.08,0.6489838362893476
10.16,0.6481906324564333
10.24,0.6470869507875707
10.32,0.6456731722611466
10.4,0.6439507660509304
10.48,0.6419222556200739
10.56,0.6395911777825124
10.64,0.6369620352844519
10.72,0.6340402435340577
10.8,0.6308320721724867
10.88,0.6273445822329271
10.96,0.623585559675502
11.040000000000001,0.6195634461141379
11.120000000000001,0.6152872675664692
11.200000000000001,0.6107665620594738
11.28,0.6060113069120117
11.36,0.6010318464912148
11.44,0.5958388212034695
11.52,0.5904430984334604
11.6,0.5848557060875307
11.68,0.5790877693317886
11.76,0.5731504510423711
11.84,0.567054896406642
11.92,0.5608121820314733
12.0,0.5544332698297924
12.08,0.5479289658709431
12.16,0.5413098842957201
12.24,0.5345864163147342
12.32,0.5277687042305093
12.4,0.5208666203506807
12.48,0.5138897505930421
12.56,0.5068473825239116
12.64,0.4997484975201607
12.72,0.49260176670283823
12.8,0.485415550256994
12.88,0.4781978997282213
12.96,0.4709565628715663
13.040000000000001,0.4636989906225387
13.120000000000001,0.4564323457626112
13.200000000000001,0.44916351286222406
13.280000000000001,0.44189910910222086
13.36,0.4346454955989646
13.44,0.42740878888824463
13.52,0.4201948722574431
13.6,0.4130094066532877
13.68,0.40585784093279814
13.76,0.398745421266739
13.84,0.39167719954696567
13.92,0.38465804069059556
14.0,0.37769262877404286
14.08,0.3707854719678585
14.16,0.3639409062783263
14.24,0.35716309813332514
14.32,0.3504560458776168
14.4,0.34382358026615345
14.48,0.3372693640629954
14.56,0.3307968908679386
14.64,0.32440948330297825
14.72,0.3181102906964512
14.8,0.311902286404314
14.88,0.3057882649058765
14.96,0.2997708388057969
15.040000000000001,0.29385243586570026
15.120000000000001,0.2880352961779152
15.200000000000001,0.28232146958102733
15.280000000000001,0.2767128134027585
15.36,0.2712109906006225
15.44,0.265817468355379
15.52,0.2605335171569944
15.6,0.2553602104080446
15.68,0.25029842455567564
15.76,0.24534883975068186
15.84,0.24051194102125883
15.92,0.23578801993975546
16.0,0.23117717675341487
16.080000000000002,0.226679322944755
16.16,0.22229418418390479
16.240000000000002,0.21802130363384517
16.32,0.2138600455699953
16.4,0.20980959927779888
16.48,0.20586898319569769
16.56,0.20203704927590893
16.64,0.19831248754149433
16.72,0.19469383082502859
16.8,0.19117945968147776
16.88,0.18776760747536847
16.96,0.18445636564968826
17.04,0.18124368919092051
17.12,0.17812740231092833
17.2,0.17510520437181487
17.28,0.1721746760842016
17.36,0.16933328601239545
17.44,0.1665783974215387
17.52,0.16390727550192374
17.6,0.1613170950041948
17.68,0.15880494831607886
17.76,0.15636785400666428
17.84,0.15400276585811998
17.92,0.15170658239721574
18.0,0.14947615693023286
18.080000000000002,0.14730830807500328
18.16,0.14519983077307053
18.240000000000002,0.14314750775359483
18.32,0.14114812140882543
18.400000000000002,0.13919846602903627
18.48,0.1372953603329991
18.56,0.1354356602186591
18.64,0.13361627164790638
18.72,0.13183416356950553
18.8,0.13008638077556212
18.88,0.12837005657962236
18.96,0.1266824251987993
19.04,0.12502083371839257
19.12,0.12338275351543238
19.2,0.12176579101755891
19.28,0.12016769767569785
19.36,0.11858637903314873
19.44,0.11701990277993113
19.52,0.11546650568951419
19.6,0.11392459934523871
19.68,0.11239277457575218
19.76,0.11086980453239083
19.84,0.1093546463564915
19.92,0.10784644140083288
20.0,0.10634451398656541
20.080000000000002,0.10484836869476793
20.16,0.10335768620991026
20.240000000000002,0.10187231775066712
20.32,0.10039227814144044
20.400000000000002,0.0989177375952616
20.48,0.09744901229521205
20.56,0.0959865538767937
20.64,0.0945309379275683
20.72,0.09308285163261854
20.8,0.09164308070476199
20.88,0.09021249574680207
20.96,0.08879203819928816
21.04,0.0873827060311976
21.12,0.08598553933257796
21.2,0.08460160596751229
21.28,0.08323198744279076
21.36,0.08187776514249953
21.44,0.08054000707145792
21.52,0.07921975524120067
21.6,0.07791801382120793
21.68,0.07663573816551578
21.76,0.07537382481095836
21.84,0.07413310252832062
21.92,0.07291432449191296
22.0,0.07171816161676281
22.080000000000002,0.07054519709606194
22.16,0.06939592215495076
22.240000000000002,0.06827073302045945
22.32,0.06716992909170526
22.400000000000002,0.06609371227947836
22.48,0.06504218747040513
22.56,0.0640153640580741
22.64,0.06301315847208559
22.72,0.062035397626007946
22.8,0.061081823196844895
22.88,0.0601520966418631
22.96,0.059245804853582634
23.04,0.058362466350353435
23.12,0.05750153789824401
23.2,0.05666242145987381
23.28,0.05584447136726396
23.36,0.055047001618662265
23.44,0.05426929320347032
23.52,0.05351060136477056
23.6,0.05277016271530789
23.68,0.05204720213001458
23.76,0.05134093934607813
23.84,0.050650595209969715
23.92,0.049975397519632175
24.0,0.04931458641896844
24.080000000000002,0.04866741931073951
24.16,0.04803317526283009
24.240000000000002,0.04741115889140721
24.32,0.04680070371269513
24.400000000000002,0.04620117496278198
24.48,0.04561197189198728
24.560000000000002,0.045032529546784106
24.64,0.04446232005800946
24.72,0.043900853459103495
24.8,0.04334767806234662
24.88,0.042802380424524514
24.96,0.04226458493614447
25.04,0.04173395307028335
25.12,0.041210182328399174
25.2,0.040693004921028245
25.28,0.04018218622128064
25.36,0.03967752302847954
25.44,0.03917884167825691
25.52,0.038685996033954964
25.6,0.03819886539238193
25.68,0.037717352334885906
25.76,0.03724138055241099
25.84,0.03677089267074582
25.92,0.03630584809962264
26.0,0.035846220926734694
26.080000000000002,0.03539199787513576
26.16,0.03494317633994264
26.240000000000002,0.03449976251777209
26.32,0.0340617696399729
26.400000000000002,0.033629216318455876
26.48,0.033202125010806764
26.560000000000002,0.03278052060940105
26.64,0.03236442915742376
26.72,0.031953876693037675
26.8,0.031548888221439905
26.88,0.03114948681319089
26.96,0.030755692825985934
27.04,0.03036752324596931
27.12,0.02998499114373894
27.2,0.02960810523936944
27.28,0.02923686957006936
27.36,0.028871283253484113
27.44,0.028511340339155346
27.52,0.0281570297402475
27.6,0.027808335237339134
27.68,0.027465235545865926
27.76,0.027127704438675786
27.84,0.026795710915123828
27.92,0.026469219408196326
28.0,0.026148190021300245
28.080000000000002,0.025832578786600488
28.16,0.02552233793711552
28.240000000000002,0.02521741618520945
28.32,0.024917759000623162
28.400000000000002,0.024623308881782373
28.48,0.024334005614787407
28.560000000000002,0.024049786515226677
28.64,0.023770586648755723
28.72,0.0234963390272293
28.8,0.023226974778055676
28.88,0.022962423285351634
28.96,0.022702612302380278
29.04,0.02244746803566325
29.12,0.022196915202024287
29.2,0.021950877060660005
29.28,0.021709275423088915
29.36,0.021472030644539584
29.44,0.021239061600914214
29.52,0.021010285655980034
29.6,0.020785618623794955
29.68,0.020564974731642986
29.76,0.020348266588856002
29.84,0.02013540516688743
29.92,0.01992629979584558
30.0,0.01972085818240263
30.080000000000002,0.019518986453578403
30.16,0.019320589230360067
30.240000000000002,0.01912556973447061
30.32,0.018933829930865315
30.400000000000002,0.0187452707077113
30.48,0.01855979209473811
30.560000000000002,0.01837729351993295
30.64,0.018197674103617473
30.72,0.018020832988032934
30.8,0.017846669699647766
30.88,0.017675084540557166
30.96,0.017505979004570023
31.04,0.017339256212867096
31.12,0.017174821363543705
31.2,0.01701258218886445
31.28,0.01685244941372755
31.36,0.016694337208634537
31.44,0.0165381636304124
31.52,0.016383851044033265
31.6,0.016231326519129712
31.68,0.01608052219519445
31.76,0.015931375610000284
31.84,0.015783829986433125
31.92,0.01563783447372573
32.0,0.015493344339959622
32.08,0.015350321113693395
32.160000000000004,0.015208732673599085
32.24,0.015068553286097356
32.32,0.014929763592084215
32.4,0.014792350544972582
32.480000000000004,0.014656307303362193
32.56,0.014521633082723136
32.64,0.014388332971467615
32.72,0.014256417717703128
32.8,0.014125903493775481
32.88,0.013996811646395383
32.96,0.013869168440706119
33.04,0.013743004807046738
33.12,0.01361835609940813
33.2,0.013495261874650062
33.28,0.013373765701423488
33.36,0.013253915007451435
33.44,0.013135760973322112
33.52,0.01301935848027365
33.6,0.01290476611857614
33.68,0.012792046262067418
33.76,0.012681265213171273
33.84,0.012572493421331292
33.92,0.012465805776249917
34.0,0.012361281975631236
34.08,0.012259006965324455
34.160000000000004,0.01215907144785521
34.24,0.012061572453345448
34.32,0.011966613964783082
34.4,0.011874307587546373
34.480000000000004,0.011784773251018215
34.56,0.011698139928114745
34.64,0.011614546356601418
34.72,0.011534141744226047
34.800000000000004,0.011457086438014987
34.88,0.011383552536561682
34.96,0.011313724422867197
35.04,0.011247799194267747
35.12,0.011185986965286528
35.2,0.011128511018875235
35.28,0.011075607781535102
35.36,0.011027526598234765
35.44,0.01098452928392207
35.52,0.010946889429774077
35.6,0.010914891444165256
35.68,0.010888829310672282
35.76,0.010869005048281165
35.84,0.010855726862309584
35.92,0.010849306978398499
36.0,0.01085005915623544
36.08,0.010858295884409213
36.160000000000004,0.010874325262927809
36.24,0.010898447585395606
36.32,0.010930951638568241
36.4,0.010972110742923868
36.480000000000004,0.011022178563901539
36.56,0.011081384729476043
36.64,0.011149930295648817
36.72,0.011227983107137546
36.800000000000004,0.011315673105904726
36.88,0.01141308764509057
36.96,0.01152026687024484
37.04,0.011637199233416596
37.12,0.011763817208502173
37.2,0.011899993278196224
37.28,0.012045536263825419
37.36,0.012200188069190262
37.44,0.012363620908236466
37.52,0.012535435083861209
37.6,0.012715157381409745
37.68,0.012902240135435512
37.76,0.013096061022071085
37.84,0.013295923621960824
37.92,0.013501058790186038
38.0,0.013710626860058715
38.08,0.013923720697198286
38.160000000000004,0.01413936960907488
38.24,0.014356544103345298
38.32,0.014574161476033538
38.4,0.014791092198087939
38.480000000000004,0.015006167056310167
38.56,0.01521818499230079
38.64,0.01542592157114404
38.72,0.015628138000267272
38.800000000000004,0.01582359060849557
38.88,0.01601104068597615
38.96,0.016189264577586956
39.04,0.016357063915817475
39.12,0.016513275874117793
39.2,0.01665678331843833
39.28,0.0167865247332595
39.36,0.016901503798894872
39.44,0.017000798499260554
39.52,0.017083569643660913
39.6,0.017149068692371598
39.68,0.017196644783856553
39.76,0.017225750871185174
39.84,0.01723594888651588
39.92,0.017226913865149865
40.0,0.0171984369744687
40.08,0.017150427407798693
40.160000000000004,0.017082913118635638
40.24,0.016996040386480067
40.32,0.016890072221462375
40.4,0.016765385630740294
40.480000000000004,0.01662246778503166
40.56,0.016461911138347485
40.64,0.016284407567773003
40.72,0.016090741612756636
40.800000000000004,0.01588178290463127
40.88,0.015658477886805862
40.96,0.01542184093410232
41.04,0.015172944985939888
41.12,0.014912911812445806
41.2,0.014642902035009054
41.28,0.014364105023342528
41.36,0.014077728789778664
41.44,0.013784989998373211
41.52,0.013487104201540551
41.6,0.01318527641051587
41.68,0.012880692098089955
41.76,0.012574508722979178
41.84,0.012267847855064344
41.92,0.011961787969775647
42.0,0.01165735796832516
42.08,0.011355531468525418
42.160000000000004,0.011057221898789698
42.24,0.01076327841581078
42.32,0.010474482654564372
42.4,0.010191546307853787
42.480000000000004,0.009915109521802641
42.56,0.009645740083646433
42.64,0.009383933369001268
42.72,0.009130113007628275
42.800000000000004,0.00888463221960812
42.88,0.008647775767899272
42.96,0.00841976246845599
43.04,0.008200748195479182
43.12,0.007990829316922122
43.2,0.007790046494054264
43.28,0.007598388778632379
43.36,0.007415797941982081
43.44,0.007242172971948669
43.52,0.007077374676156224
43.6,0.0069212303332011425
43.68,0.006773538337182744
43.76,0.006634072785242145
43.84,0.00650258796240831
43.92,0.0063788226829238764
44.0,0.00626250445225701
44.08,0.006153353419052045
44.160000000000004,0.006051086091289695
44.24,0.005955418795780161
44.32,0.005866070864767089
44.4,0.005782767537784259
44.480000000000004,0.005705242570945273
44.56,0.005633240549515316
44.64,0.005566518902889207
44.72,0.005504849623959515
44.800000000000004,0.005448020697311328
44.88,0.005395837242724282
44.96,0.005348122382115017
45.04,0.005304717839349216
45.12,0.005265484283307337
45.2,0.005230301425262207
45.28,0.005199067882041136
45.36,0.005171700816663516
45.44,0.005148135368204616
45.52,0.005128323882593296
45.6,0.005112234955939694
45.68,0.005099852301877908
45.76,0.005091173454306597
45.84,0.005086208316889482
45.92,0.005084977570739323
46.0,0.005087510951901587
46.08,0.005093845410579865
46.160000000000004,0.00510402316452661
46.24,0.005118089659661056
46.32,0.005136091451758097
46.4,0.005158074023989571
46.480000000000004,0.00518407955614167
46.56,0.005214144662487232
46.64,0.0052482981164992705
46.72,0.005286558581837604
46.800000000000004,0.00532893237026359
46.88,0.005375411248307212
46.96,0.005425970315571203
47.04,0.005480565978456253
47.12,0.005539134043793456
47.2,0.005601587957306791
47.28,0.005667817211978208
47.36,0.0057376859511869965
47.44,0.005811031790928511
47.52,0.005887664884434551
47.6,0.005967367251122017
47.68,0.006049892389953116
47.76,0.00613496519500557
47.84,0.006222282188335596
47.92,0.006311512082081815
48.0,0.006402296678226661
48.08,0.006494252110556178
48.160000000000004,0.006586970429175148
48.24,0.006680021523501004
48.32,0.006772955375049412
48.4,0.0068653046266044584
48.480000000000004,0.006956587449613947
48.56,0.007046310686962664
48.64,0.007133973243716261
48.72,0.007219069694114049
48.800000000000004,0.00730109406907575
48.88,0.0073795437848835944
48.96,0.00745392367057127
49.04,0.007523750048973651
49.120000000000005,0.007588554824426129
49.2,0.007647889528807385
49.28,0.007701329277027564
49.36,0.007748476583216684
49.44,0.007788964989769876
49.52,0.007822462463058562
49.6,0.00784867451201314
49.68,0.007867346988890064
49.76,0.007878268535303143
49.84,0.00788127264098902
49.92,0.00787623928770017
50.0,0.007863096156007048
50.08,0.007841819378553595
50.160000000000004,0.007812433829349329
50.24,0.007775012944886833
50.32,0.007729678079155117
50.4,0.007676597400851342
50.480000000000004,0.007615984347184041
50.56,0.007548095654498488
50.64,0.00747322899144337
50.72,0.0073917202254498125
50.800000000000004,0.007303940357826447
50.88,0.007210292166714722
50.96,0.007111206600442076
51.04,0.007007138966416502
51.120000000000005,0.00689856496257862
51.2,0.0067859765995709805
51.28,0.006669878062178997
51.36,0.006550781558260169
51.44,0.0064292032023444655
51.52,0.0063056589793752515
51.6,0.006180660831735423
51.68,0.006054712909817784
51.76,0.005928308023014483
51.84,0.005801924324207834
51.92,0.005676022256703057
52.0,0.005551041788149679
52.08,0.0054273999514293635
52.160000000000004,0.00530548870782954
52.24,0.005185673143150828
52.32,0.0050682900027953885
52.4,0.0049536465674180664
52.480000000000004,0.004842019866463324
52.56,0.004733656222916504
52.64,0.004628771118907133
52.72,0.004527549368477232
52.800000000000004,0.004430145580875174
52.88,0.004336684895201188
52.96,0.004247263965107199
53.04,0.004161952170567561
53.120000000000005,0.004080793032462306
53.2,0.00400380580485438
53.28,0.003930987219379527
53.36,0.0038623133560583816
53.44,0.003797741615084835
53.52,0.0037372127646803947
53.6,0.0036806530409128025
53.68,0.0036279762764144423
53.76,0.0035790860361553352
53.84,0.003533877739801158
53.92,0.003492240751658245
54.0,0.0034540604207669145
54.08,0.0034192200552782877
54.160000000000004,0.003387602816845728
54.24,0.00335909352231861
54.32,0.003333580341536679
54.4,0.003310956381457383
54.480000000000004,0.0032911211482052343
54.56,0.003273981879869909
54.64,0.003259454744024794
54.72,0.003247465894963929
54.800000000000004,0.0032379523865675285
54.88,0.0032308629375226946
54.96,0.0032261585463309503
55.04,0.003223812954161187
