Frequency,PSD
6.057142857142857,0.22566771996506685
6.171428571428571,0.23567962555494756
6.285714285714286,0.25244106557586343
6.3999999999999995,0.2722580298062663
6.514285714285714,0.29403904496846495
6.628571428571428,0.3186497284972379
6.742857142857143,0.34296878152430343
6.857142857142857,0.35799200139125126
6.9714285714285715,0.35840351535811077
7.085714285714285,0.3495765925779507
7.2,0.3413917274592954
7.314285714285714,0.34102054269583987
7.428571428571428,0.35337878908601933
7.542857142857143,0.38361514684405734
7.657142857142857,0.4374875890765082
7.771428571428571,0.52006087024066
7.885714285714285,0.6316341595899904
8.0,0.7649517551188928
8.114285714285714,0.9112747825766696
8.228571428571428,1.05929429702343
8.342857142857143,1.1713867834937068
8.457142857142857,1.1898816407544215
8.571428571428571,1.1083511157124732
8.685714285714285,0.9974775246612113
8.799999999999999,0.9200942275290056
8.914285714285715,0.8782826087913904
9.028571428571428,0.8641219997082427
9.142857142857142,0.886168261530217
9.257142857142856,0.9291274128844605
9.371428571428572,0.9486602294284057
9.485714285714286,0.9172960009328686
9.6,0.8427473413756139
9.714285714285714,0.750363640995436
9.828571428571427,0.6709349076888589
9.942857142857143,0.6284001134551797
10.057142857142857,0.6183999661576012
10.17142857142857,0.6044125844402626
10.285714285714285,0.5463305710146602
10.4,0.43808873461087017
10.514285714285714,0.31413019415840154
10.628571428571428,0.21616241974902206
10.742857142857142,0.16044488708088755
10.857142857142858,0.1376236087440446
10.971428571428572,0.1310044437428715
11.085714285714285,0.12881274305745136
11.2,0.12681243217770355
11.314285714285713,0.12559468659475176
11.428571428571429,0.1251129097368068
11.542857142857143,0.12275409602050322
11.657142857142857,0.11680536058538551
11.77142857142857,0.10832500790355398
11.885714285714286,0.09942302509659692
12.0,0.09228859842115164
12.114285714285714,0.08904406701346862
12.228571428571428,0.09029097486633361
12.342857142857142,0.09404620584180379
12.457142857142857,0.09746628082639172
12.571428571428571,0.0996854103061858
12.685714285714285,0.10171505849074296
12.799999999999999,0.10350769787220329
12.914285714285715,0.10298272109485893
13.028571428571428,0.09851555092030921
13.142857142857142,0.09129051177666049
13.257142857142856,0.08462963185174442
13.371428571428572,0.08115166253428945
13.485714285714286,0.08127343186108608
13.6,0.0844111521472246
13.714285714285714,0.08991922869996256
13.828571428571427,0.09607042282821164
13.942857142857143,0.09971006586354705
14.057142857142857,0.09881436335754262
14.17142857142857,0.09554005750009215
14.285714285714285,0.09475107986342182
14.4,0.09808788483140748
14.514285714285714,0.10216008371371502
14.628571428571428,0.10516466205700867
14.742857142857142,0.11107649732918319
14.857142857142856,0.12347277271020451
14.971428571428572,0.1394837433732502
15.085714285714285,0.15276625384253878
15.2,0.15938977198234527
15.314285714285713,0.16063507146198533
15.428571428571429,0.16178174038262352
15.542857142857143,0.16612747699252087
15.657142857142857,0.17012890186645158
15.77142857142857,0.16710668043844684
15.885714285714284,0.15490038885940394
16.0,0.13842124722307067
16.114285714285714,0.12569943096664293
16.228571428571428,0.12223519944909557
16.34285714285714,0.12886156164488097
16.457142857142856,0.1434709635371299
16.57142857142857,0.16275399010219055
16.685714285714287,0.1824799762098206
16.8,0.19830930638995242
16.914285714285715,0.20728842260384264
17.02857142857143,0.20794579896628074
17.142857142857142,0.19895044653033853
17.257142857142856,0.17932598113887668
17.37142857142857,0.15230491991217254
17.485714285714284,0.1277498173213238
17.599999999999998,0.11635449990263545
17.714285714285715,0.12034592725408909
17.82857142857143,0.13139386660386726
17.942857142857143,0.13796941273330549
18.057142857142857,0.13488217435334296
18.17142857142857,0.12553852439773422
18.285714285714285,0.11597320384395822
18.4,0.10972227391110936
18.514285714285712,0.10743723955937977
18.628571428571426,0.10699948478862223
18.742857142857144,0.10456281442293507
18.857142857142858,0.09881576805081281
18.97142857142857,0.09320887315650062
19.085714285714285,0.09179282179089476
19.2,0.09448249065851283
19.314285714285713,0.09817007593674437
19.428571428571427,0.10049610498351697
19.54285714285714,0.10078411492971603
19.657142857142855,0.09938999824562317
19.771428571428572,0.09750715293356486
19.885714285714286,0.09572546417304037
20.0,0.09288655105970431
20.114285714285714,0.08807752037898976
20.228571428571428,0.08236841875218345
20.34285714285714,0.07772298716247227
20.457142857142856,0.07610345916112068
20.57142857142857,0.07881573114016308
20.685714285714287,0.08447440924371592
20.8,0.08924656629961128
20.914285714285715,0.09061406847408707
21.02857142857143,0.08918799101294808
21.142857142857142,0.08694437065696117
21.257142857142856,0.08559706751328035
21.37142857142857,0.08597658406418532
21.485714285714284,0.0877392998422889
21.599999999999998,0.0901698074049806
21.714285714285715,0.09292343347243831
21.82857142857143,0.0952367203248705
21.942857142857143,0.09545306518642016
22.057142857142857,0.09237734310273417
22.17142857142857,0.08662004401226352
22.285714285714285,0.07992133753803317
22.4,0.07349514219929712
22.514285714285712,0.06766983580187695
22.628571428571426,0.06262110347479079
22.742857142857144,0.058554045846399914
22.857142857142858,0.05536811301434477
22.97142857142857,0.05281437111040933
23.085714285714285,0.05105443533512076
23.2,0.05035129306663201
23.314285714285713,0.0500410260622791
23.428571428571427,0.049105008922684254
23.54285714285714,0.048005528346504046
23.657142857142855,0.04848272449351939
23.771428571428572,0.051458050279607745
23.885714285714286,0.05600854583944378
24.0,0.0600566502643072
24.114285714285714,0.06188271970056545
24.228571428571428,0.06137845093028931
24.34285714285714,0.05969042244385275
24.457142857142856,0.057715571892733075
24.57142857142857,0.055531433505902256
24.685714285714283,0.05312551313577545
24.8,0.050685923823097806
24.914285714285715,0.04815195793689366
25.02857142857143,0.04548511669892921
25.142857142857142,0.04326387811477806
25.257142857142856,0.042375048297496
25.37142857142857,0.04336897036826255
25.485714285714284,0.04603783081648152
25.599999999999998,0.04946498859672806
25.71428571428571,0.052615414044885775
25.82857142857143,0.054317479800438655
25.942857142857143,0.05324205081942553
26.057142857142857,0.04948205079611852
26.17142857142857,0.045367965759938414
26.285714285714285,0.04327872892138264
26.4,0.043324394381333564
26.514285714285712,0.04383261173092362
26.628571428571426,0.04343126610571302
26.742857142857144,0.042088510527985346
26.857142857142858,0.04048888420112062
26.97142857142857,0.039243711488230026
27.085714285714285,0.038756449281462664
27.2,0.038963642212715165
27.314285714285713,0.038969763814530975
27.428571428571427,0.03769489714958837
27.54285714285714,0.035183088293647184
27.657142857142855,0.03265926076545833
27.771428571428572,0.030991236123859046
27.885714285714286,0.029726881302336864
28.0,0.028000289381368077
28.114285714285714,0.025881362651746894
28.228571428571428,0.024594284710895076
28.34285714285714,0.02558312573683704
28.457142857142856,0.029205081386900554
28.57142857142857,0.034112201778383554
28.685714285714283,0.03797412111382928
28.8,0.038948590088273206
28.914285714285715,0.03668135846425269
29.02857142857143,0.03241633157180236
29.142857142857142,0.028468272117700394
29.257142857142856,0.026923016242469087
29.37142857142857,0.028018697493756635
29.485714285714284,0.030001867103728166
29.599999999999998,0.0310483958631722
29.71428571428571,0.03096675420375844
29.82857142857143,0.030621458453315833
29.942857142857143,0.030440895998559685
30.057142857142857,0.030225178546189908
30.17142857142857,0.029763599441562545
30.285714285714285,0.02910148962703956
30.4,0.028619406575770875
30.514285714285712,0.028783919285426632
30.628571428571426,0.029482383492054776
30.74285714285714,0.029828927527136197
30.857142857142858,0.028935761716629788
30.97142857142857,0.026938346283924167
31.085714285714285,0.024867610233747766
31.2,0.023381101119443436
31.314285714285713,0.022273841383232962
31.428571428571427,0.02119310277592464
31.54285714285714,0.020093462871340333
31.657142857142855,0.019195180901934998
31.77142857142857,0.018895720760583854
31.885714285714286,0.01935023722504348
32.0,0.020075940620712433
32.114285714285714,0.02037970189843068
32.22857142857143,0.020127252491560173
32.34285714285714,0.019684606596240443
32.457142857142856,0.019164514504743452
32.57142857142857,0.01832510759539614
32.68571428571428,0.017346836155056788
32.8,0.016996192678394303
32.91428571428571,0.017627777548785632
33.028571428571425,0.0185744276538028
33.14285714285714,0.018896457759467165
33.25714285714285,0.018277573660587944
33.371428571428574,0.017019638780151704
33.48571428571429,0.015725587219276197
33.6,0.01500329088003686
33.714285714285715,0.014994891545601454
33.82857142857143,0.015253964200566631
33.94285714285714,0.015239535062326684
34.05714285714286,0.014826393884326161
34.17142857142857,0.01440738729851642
34.285714285714285,0.014591281257801996
34.4,0.01571581522939031
34.51428571428571,0.017479655341277087
34.628571428571426,0.01888924823556861
34.74285714285714,0.018894989194783322
34.857142857142854,0.017467368129492376
34.97142857142857,0.015681346455210236
35.08571428571428,0.01454365355443711
35.199999999999996,0.014219398761244492
35.31428571428572,0.014431982731797757
35.42857142857143,0.014905791026606198
35.542857142857144,0.015199213637868608
35.65714285714286,0.01480394514326206
35.77142857142857,0.013706898276350027
35.885714285714286,0.012420905469716689
36.0,0.011423910236913245
36.114285714285714,0.010860448157921287
36.22857142857143,0.01069518060037679
36.34285714285714,0.010929031676163306
36.457142857142856,0.01163446999891648
36.57142857142857,0.012842785457686854
36.68571428571428,0.014429165138713054
36.8,0.016039621522147104
36.91428571428571,0.01713081684366511
37.028571428571425,0.0171832276354027
37.14285714285714,0.0160219178791578
37.25714285714285,0.01409013610958655
37.371428571428574,0.012251169882161817
37.48571428571429,0.011130000010591763
37.6,0.010786231018083405
37.714285714285715,0.010948143192479571
37.82857142857143,0.011267177490976533
37.94285714285714,0.011426235514202118
38.05714285714286,0.011338930563970891
38.17142857142857,0.011332365253545758
38.285714285714285,0.011968436721277854
38.4,0.013486124844656455
38.51428571428571,0.015259813023883791
38.628571428571426,0.016011406957735515
38.74285714285714,0.01500272545245068
38.857142857142854,0.012851314056742311
38.97142857142857,0.010828633931659391
39.08571428571428,0.00974622588330485
39.199999999999996,0.009717700103845947
39.31428571428571,0.010449683125714808
39.42857142857143,0.011450372815589388
39.542857142857144,0.012173923788074779
39.65714285714286,0.012231895075983318
39.77142857142857,0.011618890053942003
39.885714285714286,0.010730775225044183
40.0,0.01003360190038713
40.114285714285714,0.009668885471458928
40.22857142857143,0.009417617419097656
40.34285714285714,0.009020583915095338
40.457142857142856,0.008472369418539068
40.57142857142857,0.007988341780403255
40.68571428571428,0.007744620525739765
40.8,0.00779778392731606
40.91428571428571,0.008271048761209678
41.028571428571425,0.009317852862116924
41.14285714285714,0.01073727464893058
41.25714285714285,0.011885727793320285
41.371428571428574,0.012169274005832686
41.48571428571429,0.01151490087670842
41.6,0.010336256267434705
41.714285714285715,0.009239921490644174
41.82857142857143,0.008702959842862144
41.94285714285714,0.008741160328029093
42.05714285714286,0.008930023203263603
42.17142857142857,0.008883066747995834
42.285714285714285,0.008644351633699882
42.4,0.008594192782795633
42.51428571428571,0.008968883945570374
42.628571428571426,0.009528514010739578
42.74285714285714,0.009826303112296575
42.857142857142854,0.009709915952948638
42.97142857142857,0.009395732710933987
43.08571428571428,0.009167972455852914
43.199999999999996,0.009134693058205879
43.31428571428571,0.009208504856425867
43.42857142857143,0.009259534469516419
43.542857142857144,0.00924558400994279
43.65714285714286,0.00918984093187646
43.77142857142857,0.009153869326214013
43.885714285714286,0.009249999572226084
44.0,0.00958710598144468
44.114285714285714,0.010213697630422115
44.22857142857143,0.011039178937853942
44.34285714285714,0.011701599805550765
44.457142857142856,0.011668315835701697
44.57142857142857,0.010687085581427872
44.68571428571428,0.009106575422663873
44.8,0.007612104580427214
44.91428571428571,0.006684965760636059
45.028571428571425,0.006359194002788491
45.14285714285714,0.00638139115401966
45.25714285714285,0.006548523271197492
45.37142857142857,0.006896615952732915
45.48571428571429,0.007498551590728648
45.6,0.00814258164532168
45.714285714285715,0.008442776522397402
45.82857142857143,0.00830383943997314
45.94285714285714,0.008003498362599708
46.05714285714286,0.007733379428002627
46.17142857142857,0.007376382904241097
46.285714285714285,0.006847639593797944
46.4,0.006339881046246183
46.51428571428571,0.006127872593132207
46.628571428571426,0.006339905210998491
46.74285714285714,0.006924214849151934
46.857142857142854,0.007698753767671966
46.97142857142857,0.008470743540479074
47.08571428571428,0.009123935126862591
47.199999999999996,0.009541844801532489
47.31428571428571,0.009579545053167677
47.42857142857143,0.009232351786599133
47.542857142857144,0.00870788336333331
47.65714285714286,0.008267721459185737
47.77142857142857,0.008045436393246837
47.885714285714286,0.007980628276205968
48.0,0.007937709643856074
48.114285714285714,0.0079433481505795
48.22857142857143,0.008171651346729538
48.34285714285714,0.008610581813295746
48.457142857142856,0.00899944529276606
48.57142857142857,0.009280284359562416
48.68571428571428,0.009786435010126578
48.8,0.010769491284894375
48.91428571428571,0.012094994312173011
49.028571428571425,0.013611082730329831
49.14285714285714,0.015499518779333404
49.25714285714285,0.018756037403144528
49.37142857142857,0.029344400026490962
49.48571428571429,0.0757097428251381
49.6,0.24900775805619613
49.714285714285715,0.7218683758608777
49.82857142857143,1.601262896873419
49.94285714285714,2.6137401867948777
50.05714285714286,3.1065544996873227
50.17142857142857,2.68572616636118
50.285714285714285,1.6978419605261603
50.4,0.7974201899443712
50.51428571428571,0.2910178151520375
50.628571428571426,0.09385311308927366
50.74285714285714,0.03528056749657462
50.857142857142854,0.019207634589621714
50.97142857142857,0.013645709486414304
51.08571428571428,0.01097486394388203
51.199999999999996,0.009480137456727569
51.31428571428571,0.008576354516035412
51.42857142857142,0.008031803683567398
51.542857142857144,0.007855210554419935
51.65714285714286,0.007991053306874815
51.77142857142857,0.008104486163785384
51.885714285714286,0.00788610457260463
52.0,0.007424978885252298
52.114285714285714,0.007023526758392082
52.22857142857143,0.006803641882883954
52.34285714285714,0.006702335941243736
52.457142857142856,0.006722085755729175
52.57142857142857,0.006949063797313743
52.68571428571428,0.007297434399336769
52.8,0.0074423179213677386
52.91428571428571,0.0071846419560933844
53.028571428571425,0.006748272064901664
53.14285714285714,0.0065242972730122735
53.25714285714285,0.0066066451635107175
53.37142857142857,0.006757973249715099
53.48571428571429,0.006773894856953733
53.6,0.00667309413025347
53.714285714285715,0.006536443686899866
53.82857142857143,0.006402528503302255
53.94285714285714,0.006359863136779505
54.05714285714286,0.006544210575435531
54.17142857142857,0.00699833538827915
54.285714285714285,0.007601077735534048
54.4,0.008098222810543359
54.51428571428571,0.008231133048784199
54.628571428571426,0.007967492484856068
54.74285714285714,0.007572683851883411
54.857142857142854,0.007347113519258083
54.97142857142857,0.00735538589743579
55.08571428571428,0.007443089856950915
