Frequency,PSD
6.057142857142857,0.332365114546765
6.171428571428571,0.33332298211691247
6.285714285714286,0.33540043219332727
6.3999999999999995,0.3387772152487929
6.514285714285714,0.34346066046082047
6.628571428571428,0.34918316264081584
6.742857142857143,0.3554804649086758
6.857142857142857,0.3619502080628839
6.9714285714285715,0.36859920460877715
7.085714285714285,0.37614270648072146
7.2,0.38613057691027064
7.314285714285714,0.4008264021856727
7.428571428571428,0.42283106353592426
7.542857142857143,0.4545064315668906
7.657142857142857,0.4973123687478342
7.771428571428571,0.5512145218177474
7.885714285714285,0.6143344429463624
8.0,0.6829768279895232
8.114285714285714,0.7520771426017703
8.228571428571428,0.8159938138985172
8.342857142857143,0.8694713338323258
8.457142857142857,0.9085635646014566
8.571428571428571,0.931333411774506
8.685714285714285,0.938204719357189
8.799999999999999,0.9318996122682145
8.914285714285715,0.9169410889155245
9.028571428571428,0.8987574198462682
9.142857142857142,0.88251454074491
9.257142857142856,0.8719154608202893
9.371428571428572,0.8682888841866683
9.485714285714286,0.8702724295326063
9.6,0.8742412663853883
9.714285714285714,0.8753775935277118
9.828571428571427,0.8690308255429915
9.942857142857143,0.8519106858842087
10.057142857142857,0.822748883710166
10.17142857142857,0.7823093543556068
10.285714285714285,0.7328864705284102
10.4,0.6775740904662073
10.514285714285714,0.6195728131260491
10.628571428571428,0.5616863737061824
10.742857142857142,0.5060387406209872
10.857142857142858,0.4539820998649897
10.971428571428572,0.4061566826845272
11.085714285714285,0.36266463257940107
11.2,0.32330546697791945
11.314285714285713,0.2878011598027839
11.428571428571429,0.2559427026666297
11.542857142857143,0.22762820307573692
11.657142857142857,0.20281541695779573
11.77142857142857,0.1814457886404909
11.885714285714286,0.1633937138409093
12.0,0.14846230232466362
12.114285714285714,0.13641091396424468
12.228571428571428,0.12698224404126057
12.342857142857142,0.1199034689480509
12.457142857142857,0.11485778237622535
12.571428571428571,0.11144506165594369
12.685714285714285,0.10916182410383433
12.799999999999999,0.10742585766866598
12.914285714285715,0.10565176951726643
13.028571428571428,0.10335861618840521
13.142857142857142,0.10027201485326946
13.257142857142856,0.09638082080593059
13.371428571428572,0.09192445496185797
13.485714285714286,0.08731345589686813
13.6,0.08301017523398473
13.714285714285714,0.07940859254254169
13.828571428571427,0.07674878673756995
13.942857142857143,0.07508607604608669
14.057142857142857,0.07431432132098424
14.17142857142857,0.07422520792033914
14.285714285714285,0.07457670603825287
14.4,0.07514684855889231
14.514285714285714,0.07576091597619208
14.628571428571428,0.0762944924581512
14.742857142857142,0.07666448474023578
14.857142857142856,0.07682121344775661
14.971428571428572,0.07674823270231625
15.085714285714285,0.07646738616478846
15.2,0.07604019065124432
15.314285714285713,0.07555645427126138
15.428571428571429,0.07510746001539664
15.542857142857143,0.0747512312130955
15.657142857142857,0.07448602263630143
15.77142857142857,0.07424942159833227
15.885714285714284,0.07395123290137268
16.0,0.07353140775520665
16.114285714285714,0.07301824603520957
16.228571428571428,0.07255693112402199
16.34285714285714,0.07238886898427058
16.457142857142856,0.07278390270995623
16.57142857142857,0.07394908951604041
16.685714285714287,0.07594839046960275
16.8,0.07866289525931666
16.914285714285715,0.08180463683476949
17.02857142857143,0.08497695465577935
17.142857142857142,0.08775917255179679
17.257142857142856,0.08978833006457457
17.37142857142857,0.09081651345521602
17.485714285714284,0.09073509836384225
17.599999999999998,0.08957021143807023
17.714285714285715,0.08746075274069677
17.82857142857143,0.08462930830641507
17.942857142857143,0.08135037682434273
18.057142857142857,0.0779154262476152
18.17142857142857,0.0745945920701636
18.285714285714285,0.07159985102499018
18.4,0.06905964665160085
18.514285714285712,0.06701500446863813
18.628571428571426,0.06544027616254816
18.742857142857144,0.0642808754949656
18.857142857142858,0.06349199526176423
18.97142857142857,0.06306176150289625
19.085714285714285,0.06301051169650099
19.2,0.06337045608157546
19.314285714285713,0.06415968503690506
19.428571428571427,0.06536562687839352
19.54285714285714,0.06694494889636451
19.657142857142855,0.0688345541447111
19.771428571428572,0.0709598750257742
19.885714285714286,0.07322840290476919
20.0,0.07550822208881028
20.114285714285714,0.0776057734082906
20.228571428571428,0.07926365698473507
20.34285714285714,0.0801919045846665
20.457142857142856,0.08012826251065032
20.57142857142857,0.07890587275563135
20.685714285714287,0.0765014120894039
20.8,0.07304612842667314
20.914285714285715,0.06879934329853246
21.02857142857143,0.06409796504670373
21.142857142857142,0.05929967966874158
21.257142857142856,0.05473292585943272
21.37142857142857,0.0506595982108063
21.485714285714284,0.047251819606776164
21.599999999999998,0.04458300087900428
21.714285714285715,0.04263351961162453
21.82857142857143,0.041310380797019645
21.942857142857143,0.04047762479178793
22.057142857142857,0.03999102649611852
22.17142857142857,0.03972836498609236
22.285714285714285,0.039606767095026946
22.4,0.039582274787334296
22.514285714285712,0.039633295503667745
22.628571428571426,0.039736393617251155
22.742857142857144,0.03984637708907606
22.857142857142858,0.03989054511144034
22.97142857142857,0.0397801518467064
23.085714285714285,0.03943422081442699
23.2,0.03880578661374795
23.314285714285713,0.03790036757744194
23.428571428571427,0.03678020347695346
23.54285714285714,0.03555319117039678
23.657142857142855,0.03435024066413152
23.771428571428572,0.0332976130813528
23.885714285714286,0.03249131446591157
24.0,0.03197914380201812
24.114285714285714,0.03175339545186392
24.228571428571428,0.03175460942785787
24.34285714285714,0.03188498707632119
24.457142857142856,0.03202921925018913
24.57142857142857,0.03207984398502779
24.685714285714283,0.03196311781659298
24.8,0.03165976379099498
24.914285714285715,0.03121395200657191
25.02857142857143,0.030725112047182878
25.142857142857142,0.0303216185611478
25.257142857142856,0.030122137819538868
25.37142857142857,0.03019658291334623
25.485714285714284,0.030540634435280465
25.599999999999998,0.03107366730403373
25.71428571428571,0.03166097913173289
25.82857142857143,0.03215166149690281
25.942857142857143,0.03241800549565679
26.057142857142857,0.03238332378731164
26.17142857142857,0.03203125318095857
26.285714285714285,0.03139734758847777
26.4,0.03054953645214548
26.514285714285712,0.029566120977452065
26.628571428571426,0.028518693036825447
26.742857142857144,0.02746397489526937
26.857142857142858,0.026444512996856778
26.97142857142857,0.025494722932669096
27.085714285714285,0.024647123795315685
27.2,0.02393435475106316
27.314285714285713,0.02338535136443724
27.428571428571427,0.023017445893652507
27.54285714285714,0.02282841878678667
27.657142857142855,0.022792670007855852
27.771428571428572,0.022863919267719673
27.885714285714286,0.022984256927757754
28.0,0.023097088307361034
28.114285714285714,0.023160217276426837
28.228571428571428,0.02315521977523412
28.34285714285714,0.023090359108318387
28.457142857142856,0.022996382186837992
28.57142857142857,0.022916985108304366
28.685714285714283,0.022897496907313134
28.8,0.022975439811622738
28.914285714285715,0.023174974132621803
29.02857142857143,0.023504850325822044
29.142857142857142,0.023957894529473514
29.257142857142856,0.02451016928549328
29.37142857142857,0.02511947926803245
29.485714285714284,0.025724679023119132
29.599999999999998,0.02624817795562458
29.71428571428571,0.026603649171217963
29.82857142857143,0.026709342434812877
29.942857142857143,0.02650502830985301
30.057142857142857,0.02596824614879103
30.17142857142857,0.02512435227186969
30.285714285714285,0.024045959882920933
30.4,0.022840850966641325
30.514285714285712,0.021631907012748107
30.628571428571426,0.02053567152917457
30.74285714285714,0.019646017176034803
30.857142857142858,0.01902614789744736
30.97142857142857,0.01870786234083508
31.085714285714285,0.018694259096609118
31.2,0.018962324475962397
31.314285714285713,0.019464474683617984
31.428571428571427,0.02013093991847576
31.54285714285714,0.020875725125015315
31.657142857142855,0.021607172346127988
31.77142857142857,0.02224122690945113
31.885714285714286,0.022713558817522156
32.0,0.022987031480808228
32.114285714285714,0.02305316465040277
32.22857142857143,0.02292851765350643
32.34285714285714,0.022647931757797873
32.457142857142856,0.02225627274851726
32.57142857142857,0.0217997283533332
32.68571428571428,0.0213177389979778
32.8,0.020837166006864232
32.91428571428571,0.02037042214704313
33.028571428571425,0.01991829028316254
33.14285714285714,0.019476291049979794
33.25714285714285,0.019041830383065436
33.371428571428574,0.018619054766022984
33.48571428571429,0.018219612872812152
33.6,0.017859588324712128
33.714285714285715,0.01755448478019736
33.82857142857143,0.01731446123712523
33.94285714285714,0.017141132111972393
34.05714285714286,0.017026074571201866
34.17142857142857,0.016950697034593693
34.285714285714285,0.01688754292552747
34.4,0.016803716160371192
34.51428571428571,0.016666913711612146
34.628571428571426,0.016453229009593687
34.74285714285714,0.016154263360914942
34.857142857142854,0.015780482508385683
34.97142857142857,0.015358889827568013
35.08571428571428,0.01492541449435337
35.199999999999996,0.014514600195048362
35.31428571428572,0.014150161896610478
35.42857142857143,0.013839583763728049
35.542857142857144,0.013574614114375964
35.65714285714286,0.01333771137780157
35.77142857142857,0.013112448777323133
35.885714285714286,0.012894037306896353
36.0,0.012695394081032818
36.114285714285714,0.01254546823061973
36.22857142857143,0.012479764586561169
36.34285714285714,0.012526707316835806
36.457142857142856,0.012695566924324992
36.57142857142857,0.012970880441847979
36.68571428571428,0.013315151063563431
36.8,0.013678030280426832
36.91428571428571,0.01400808005834061
37.028571428571425,0.01426327554828551
37.14285714285714,0.014417915920523078
37.25714285714285,0.014465253894274622
37.371428571428574,0.014416103496217959
37.48571428571429,0.014294045200610343
37.6,0.01412824960055934
37.714285714285715,0.013945718774149974
37.82857142857143,0.013765454068963809
37.94285714285714,0.013596807126056534
38.05714285714286,0.013442608929175637
38.17142857142857,0.013305248408851009
38.285714285714285,0.013192172280261717
38.4,0.013117548607156039
38.51428571428571,0.01309906365924522
38.628571428571426,0.01315162990858518
38.74285714285714,0.013281381278253249
38.857142857142854,0.013482773442723202
38.97142857142857,0.013739425869415463
39.08571428571428,0.014027136515946824
39.199999999999996,0.014316795610452
39.31428571428571,0.014576107158158103
39.42857142857143,0.014771061420879195
39.542857142857144,0.014869260032649089
39.65714285714286,0.01484633203902033
39.77142857142857,0.014694171701951588
39.885714285714286,0.014427343103851546
40.0,0.014083670850428592
40.114285714285714,0.01371741294247527
40.22857142857143,0.013387213763907915
40.34285714285714,0.013143827682439282
40.457142857142856,0.0130224741738245
40.57142857142857,0.0130416463539042
40.68571428571428,0.013206259662359172
40.8,0.013510842826073923
40.91428571428571,0.013939466637604585
41.028571428571425,0.014462488763441042
41.14285714285714,0.015033534924435758
41.25714285714285,0.015591074192432445
41.371428571428574,0.016066780896795554
41.48571428571429,0.01639897734555351
41.6,0.016546272499018362
41.714285714285715,0.016495974048174655
41.82857142857143,0.01626419709709138
41.94285714285714,0.015888372927355097
42.05714285714286,0.015415950330131023
42.17142857142857,0.01489397758480869
42.285714285714285,0.01436283671856415
42.4,0.013854777828918401
42.51428571428571,0.013395573707638175
42.628571428571426,0.013006621541662294
42.74285714285714,0.012705329271115501
42.857142857142854,0.01250308850703899
42.97142857142857,0.01240172098945367
43.08571428571428,0.012390295896278405
43.199999999999996,0.01244432059712413
43.31428571428571,0.012528560026483011
43.42857142857143,0.012603453905115681
43.542857142857144,0.012633705715278906
43.65714285714286,0.012596567215393697
43.77142857142857,0.012487063480867276
43.885714285714286,0.012318172305434928
44.0,0.012115697592747148
44.114285714285714,0.011909652628826272
44.22857142857143,0.01172543494244724
44.34285714285714,0.01157812053003593
44.457142857142856,0.011471715287444204
44.57142857142857,0.01140289821583408
44.68571428571428,0.011366832304031996
44.8,0.011361929123474095
44.91428571428571,0.011391254161220034
45.028571428571425,0.011460053788919362
45.14285714285714,0.011570785914365157
45.25714285714285,0.011718199562947769
45.37142857142857,0.01188696916860405
45.48571428571429,0.012053229746439229
45.6,0.012189648309549123
45.714285714285715,0.012272178421769534
45.82857142857143,0.012285993682564927
45.94285714285714,0.012228498029868749
46.05714285714286,0.01210855396391157
46.17142857142857,0.011942625503947844
46.285714285714285,0.011749725305400126
46.4,0.011547310990273795
46.51428571428571,0.011349448058937716
46.628571428571426,0.011167129913718378
46.74285714285714,0.011009526365471829
46.857142857142854,0.01088482804112562
46.97142857142857,0.010800193796033527
47.08571428571428,0.010761267625647188
47.199999999999996,0.010771943669401105
47.31428571428571,0.010834407341242906
47.42857142857143,0.010948726406934239
47.542857142857144,0.011111324247113315
47.65714285714286,0.011312697796919926
47.77142857142857,0.011535911659599383
47.885714285714286,0.011757595435822873
48.0,0.011952039102636355
48.114285714285714,0.01209733385213743
48.22857142857143,0.01218171172945835
48.34285714285714,0.01220911848598477
48.457142857142856,0.01220522002758842
48.57142857142857,0.012227113318230417
48.68571428571428,0.012380338881773242
48.8,0.012844006894045336
48.91428571428571,0.013898180874893817
49.028571428571425,0.015937720946605533
49.14285714285714,0.019447210823478035
49.25714285714285,0.024910198013413935
49.37142857142857,0.03264240608158456
49.48571428571429,0.042576659586810305
49.6,0.05407558787344145
49.714285714285715,0.06587807872601172
49.82857142857143,0.07626456357726341
49.94285714285714,0.08344410285269266
50.05714285714286,0.08605361627016947
50.17142857142857,0.0835797405570256
50.285714285714285,0.07652357677559633
50.4,0.06623486938468244
50.51428571428571,0.05448985144518109
50.628571428571426,0.042993073191452125
50.74285714285714,0.032992817652362214
50.857142857142854,0.025119108043931464
50.97142857142857,0.01944008400110459
51.08571428571428,0.015650437272799644
51.199999999999996,0.013285513306419095
51.31428571428571,0.011885688646739372
51.42857142857142,0.011084511676876735
51.542857142857144,0.010631685884121035
51.65714285714286,0.010377246771377522
51.77142857142857,0.010241126555582392
51.885714285714286,0.010183262021192666
52.0,0.010181195370835222
52.114285714285714,0.010217150780883515
52.22857142857143,0.010273913655769136
52.34285714285714,0.010337105829198697
52.457142857142856,0.010400236398279286
52.57142857142857,0.01046861298558757
52.68571428571428,0.01055917021104972
52.8,0.010695260824789546
52.91428571428571,0.010897693512146719
53.028571428571425,0.011174954606624469
53.14285714285714,0.0115160943631933
53.25714285714285,0.011889080249288548
53.37142857142857,0.012245751561424392
53.48571428571429,0.012532366939051857
53.6,0.01270285619212553
53.714285714285715,0.012731002970776721
53.82857142857143,0.012618228568991762
53.94285714285714,0.012395095563131361
54.05714285714286,0.012116327053563532
54.17142857142857,0.011850396406481223
54.285714285714285,0.01166550493929594
54.4,0.01161438117000365
54.51428571428571,0.01172100987674594
54.628571428571426,0.01197278890075748
54.74285714285714,0.012321038490264266
54.857142857142854,0.012690891166122235
54.97142857142857,0.012998799504330697
55.08571428571428,0.013173292831566919
