Frequency,PSD
6.0,0.41792267170456254
6.08,0.4145290704861242
6.16,0.40983380676396663
6.24,0.4069985269380521
6.32,0.4087722227458903
6.4,0.4163012102936531
6.48,0.4287177842885473
6.5600000000000005,0.4435194383616293
6.640000000000001,0.45741560298871653
6.72,0.4672754645988306
6.8,0.4709395825194023
6.88,0.46776356754646925
6.96,0.4587903499474388
7.04,0.4464896000604437
7.12,0.4341247154786062
7.2,0.42494784755758297
7.28,0.42146782289169654
7.36,0.4249523025656794
7.44,0.4352000185838627
7.5200000000000005,0.45057059807408295
7.6000000000000005,0.46831797596078967
7.68,0.4853251572844929
7.76,0.49921596622720776
7.84,0.5094972338094891
7.92,0.5180927926530224
8.0,0.5287148914645
8.08,0.5451078240897471
8.16,0.5689825917490015
8.24,0.598847552964792
8.32,0.6305235813808943
8.4,0.6590995991941087
8.48,0.681155395192994
8.56,0.6959572883506664
8.64,0.7051034150373523
8.72,0.7111345685097012
8.8,0.7161457487176424
8.88,0.7211543942356293
8.96,0.7262882645523585
9.040000000000001,0.7313449521701352
9.120000000000001,0.7362250454623469
9.200000000000001,0.7410125479656516
9.28,0.7457870082852254
9.36,0.7504269984235516
9.44,0.7546525245882296
9.52,0.7583583291499968
9.6,0.761997965723672
9.68,0.7666085009334322
9.76,0.7732423496214152
9.84,0.7820631251983079
9.92,0.7917835975857247
10.0,0.8000366691012333
10.08,0.8046342939467066
10.16,0.8049667130289129
10.24,0.8026222114359092
10.32,0.800818081122737
10.4,0.8029988037519598
10.48,0.8113880445669691
10.56,0.8261460774473216
10.64,0.8453285276481916
10.72,0.8654697858019906
10.8,0.8825229714607085
10.88,0.8929786024354232
10.96,0.8950327395699252
11.040000000000001,0.889562411278544
11.120000000000001,0.880480926294429
11.200000000000001,0.8740156780354347
11.28,0.8767551961999659
11.36,0.8929162064548624
11.44,0.921905661253935
11.52,0.9574855620907139
11.6,0.989369009439913
11.68,1.0069281483237826
11.76,1.0034367564840017
11.84,0.978740802705903
11.92,0.9389558009423293
12.0,0.8933978561133936
12.08,0.8504452893653615
12.16,0.8144521178381825
12.24,0.7850195819656225
12.32,0.7585218715185442
12.4,0.7306843393042779
12.48,0.6987731311922254
12.56,0.6625114906733167
12.64,0.6236981291192224
12.72,0.5851289469062595
12.8,0.549546645779483
12.88,0.5190498392827276
12.96,0.4949803695832703
13.040000000000001,0.4780452839488022
13.120000000000001,0.4684105354223651
13.200000000000001,0.4656494113399595
13.280000000000001,0.46860377675206627
13.36,0.4753215373589722
13.44,0.4832310329493697
13.52,0.4896096594893812
13.6,0.4922458064843535
13.68,0.4900586281513958
13.76,0.4834076965386958
13.84,0.47392646179026865
13.92,0.46391206788249284
14.0,0.4555041351211137
14.08,0.44997781154054606
14.16,0.4474084604214171
14.24,0.44678920500547437
14.32,0.4465170689388223
14.4,0.4450778284163882
14.48,0.4417167250151943
14.56,0.43683351716778346
14.64,0.43185088757046847
14.72,0.42849909395738506
14.8,0.42781058907338476
14.88,0.4293705972932541
14.96,0.4312643094378451
15.040000000000001,0.4307367690804342
15.120000000000001,0.42517193897027217
15.200000000000001,0.41290475137968624
15.280000000000001,0.39359753168829953
15.36,0.36819671748864014
15.44,0.3386353249911038
15.52,0.307444960605783
15.6,0.2773742236511638
15.68,0.2510425946245631
15.76,0.2306177849815502
15.84,0.2175129142300059
15.92,0.2121575501833374
16.0,0.21394460085901149
16.080000000000002,0.22141475650552608
16.16,0.23261118620896892
16.240000000000002,0.24542929820064868
16.32,0.2578190620569116
16.4,0.26786056379513995
16.48,0.2738722079516965
16.56,0.27467453450140983
16.64,0.2699393217004825
16.72,0.26038824838233027
16.8,0.2476391002721251
16.88,0.23371576585039028
16.96,0.22045525316512637
17.04,0.20908465362347467
17.12,0.200095738077253
17.2,0.19336012061887253
17.28,0.188348024895125
17.36,0.18435481449088698
17.44,0.1807073038553035
17.52,0.17693344168779157
17.6,0.17284814283963612
17.68,0.1685097461537434
17.76,0.16406918840625562
17.84,0.1596136356418007
17.92,0.15511642078067758
18.0,0.15052633818167
18.080000000000002,0.14592388407746887
18.16,0.14162131360503682
18.240000000000002,0.1381183425499982
18.32,0.13591352329191178
18.400000000000002,0.1352547598863481
18.48,0.1359495357108258
18.56,0.137336184927247
18.64,0.13845424685339486
18.72,0.1383663255855351
18.8,0.13650528512899576
18.88,0.13288818052934231
18.96,0.12808555800574278
19.04,0.12295442117950081
19.12,0.11826979712337665
19.2,0.11443822052397794
19.28,0.11141397989779794
19.36,0.1088170045056596
19.44,0.10615659598756916
19.52,0.10304442174024646
19.6,0.09931757610751685
19.68,0.09504878708404413
19.76,0.09047063707160757
19.84,0.08587147493764123
19.92,0.08152089996946187
20.0,0.07765031142793997
20.080000000000002,0.07446986425039606
20.16,0.07217895028407811
20.240000000000002,0.07093792081039352
20.32,0.07080196563409616
20.400000000000002,0.07164978885317883
20.48,0.07315260112651076
20.56,0.07481732658348447
20.64,0.07610526408147654
20.72,0.07658669659306235
20.8,0.07606536106430906
20.88,0.07461507578229029
20.96,0.07251514656609784
21.04,0.07012500604130156
21.12,0.06776478871879447
21.2,0.06564983265084476
21.28,0.0638818098329147
21.36,0.06246598548479894
21.44,0.061327594606288435
21.52,0.06032955319983256
21.6,0.05931392355704827
21.68,0.05817606317962505
21.76,0.0569426798961435
21.84,0.055798844973282954
21.92,0.05502472273729604
22.0,0.0548576905104447
22.080000000000002,0.05535255294021171
22.16,0.05632633848039432
22.240000000000002,0.057427114485664905
22.32,0.058287375160041094
22.400000000000002,0.05866946843870491
22.48,0.05852351427868467
22.56,0.05794494750345236
22.64,0.05708452063114383
22.72,0.056079779124716435
22.8,0.05504122144446967
22.88,0.05407680816873059
22.96,0.05331431332121715
23.04,0.052891186451542595
23.12,0.05290873545304755
23.2,0.05337167751306004
23.28,0.054146460315913
23.36,0.05496908074723671
23.44,0.055512708609321414
23.52,0.055492194825720376
23.6,0.054756276617626776
23.68,0.05332181318882815
23.76,0.05133951275542839
23.84,0.04902101122408299
23.92,0.04657168146191538
24.0,0.04415603816608642
24.080000000000002,0.04189447374431356
24.16,0.03987479845645959
24.240000000000002,0.03816358911708264
24.32,0.036809741946226444
24.400000000000002,0.03583815496841131
24.48,0.035236632019416764
24.560000000000002,0.03494539492438068
24.64,0.03486088502918869
24.72,0.03485832337348406
24.8,0.03482412180072235
24.88,0.034680737005839686
24.96,0.03439110224693805
25.04,0.033944558682105934
25.12,0.03333970859515781
25.2,0.03258103349434215
25.28,0.03169373048888394
25.36,0.030743870370827785
25.44,0.02984232505275543
25.52,0.02911948932592326
25.6,0.028679048040104498
25.68,0.02855657390862958
25.76,0.02870735681716079
25.84,0.029028037822654635
25.92,0.029395403723844964
26.0,0.029700524882821464
26.080000000000002,0.02986800362534611
26.16,0.029863442860241233
26.240000000000002,0.029694456765346818
26.32,0.029404354786851113
26.400000000000002,0.029055179318719506
26.48,0.028703046411787787
26.560000000000002,0.028376072968903408
26.64,0.02806458673039951
26.72,0.027726054927961298
26.8,0.027301300838180432
26.88,0.02673722248819055
26.96,0.02601008924468489
27.04,0.02514029446497639
27.12,0.024189584005191462
27.2,0.02324040394971791
27.28,0.022368887606594327
27.36,0.02162628805559618
27.44,0.021034299443483066
27.52,0.020587625839004194
27.6,0.020255422598407447
27.68,0.01998295701470719
27.76,0.019703656029347795
27.84,0.019367483795398974
27.92,0.018975887215642494
28.0,0.018600744133350902
28.080000000000002,0.018368269588754593
28.16,0.01840852114970116
28.240000000000002,0.018793270582574607
28.32,0.01949375093597581
28.400000000000002,0.02037946389752883
28.48,0.02125763182527004
28.560000000000002,0.021934179060877627
28.64,0.022271042127113286
28.72,0.022220788482760226
28.8,0.021830933041804484
28.88,0.021220741941945627
28.96,0.020540792482638195
29.04,0.019929938628482427
29.12,0.019483948052264805
29.2,0.019243286335153858
29.28,0.019197001125158236
29.36,0.019292803938716258
29.44,0.019446218405365447
29.52,0.019551427252875227
29.6,0.01950248970685529
29.68,0.01922715095348505
29.76,0.018720197320055684
29.84,0.018054160171322022
29.92,0.017354213369985935
30.0,0.016747048023098475
30.080000000000002,0.01631181969727538
30.16,0.016059195759215522
30.240000000000002,0.015944002635895377
30.32,0.01589544059372185
30.400000000000002,0.01584296899497629
30.48,0.015727497253097123
30.560000000000002,0.015503617225979097
30.64,0.015144569963231765
30.72,0.014653645849161272
30.8,0.014073218699919225
30.88,0.013478940121553522
30.96,0.012956275433956436
31.04,0.012570871540127494
31.12,0.012349861833278792
31.2,0.012283177509170455
31.28,0.012339887025442621
31.36,0.01248631612580313
31.44,0.012695058982048073
31.52,0.012942618215988856
31.6,0.013201197206163605
31.68,0.01343324030232456
31.76,0.013595223746533304
31.84,0.013650906968808958
31.92,0.013586538953560351
32.0,0.013416735104428286
32.08,0.013174490743737301
32.160000000000004,0.012890269437536765
32.24,0.012574484677078241
32.32,0.012216454419178627
32.4,0.011801177183688703
32.480000000000004,0.011332212396908518
32.56,0.010844532999885064
32.64,0.010397978599166077
32.72,0.010054183584615512
32.8,0.009849479663333648
32.88,0.009778403034909289
32.96,0.009796855295511095
33.04,0.009843763405292954
33.12,0.009870247126884644
33.2,0.009861167876664714
33.28,0.009838274542492548
33.36,0.009844484458826692
33.44,0.009918457086141898
33.52,0.01007187928690045
33.6,0.01027856949619703
33.68,0.010478697121950615
33.76,0.010596515799207219
33.84,0.010566221466482768
33.92,0.010357160248454358
34.0,0.009988060821633196
34.08,0.00952299357912312
34.160000000000004,0.009049691205200255
34.24,0.00864976457447627
34.32,0.008374462236766612
34.4,0.008235905286166613
34.480000000000004,0.00821445671803514
34.56,0.008274247623223988
34.64,0.008376552280767656
34.72,0.00848557417712301
34.800000000000004,0.008568710214584779
34.88,0.008597261988701185
34.96,0.008551222690516705
35.04,0.008426164424055351
35.12,0.008236811820866552
35.2,0.008013376999909148
35.28,0.007791310323881011
35.36,0.007598968935301827
35.44,0.007448622462056171
35.52,0.007334484649103329
35.6,0.00723832274351976
35.68,0.0071398033598629946
35.76,0.0070264257510344735
35.84,0.006898120153387061
35.92,0.006764626079939349
36.0,0.006637867160234503
36.08,0.006524057433516478
36.160000000000004,0.006419790941926224
36.24,0.006313661859911478
36.32,0.006192073519481284
36.4,0.006046405793565414
36.480000000000004,0.005878783641930601
36.56,0.0057044687905564145
36.64,0.0055497148602533675
36.72,0.005444988571974424
36.800000000000004,0.005415181933554124
36.88,0.005470291659751469
36.96,0.005600568701259746
37.04,0.005778436887295349
37.12,0.005966375152954149
37.2,0.006127401553042332
37.28,0.006234143876176724
37.36,0.006273629558544835
37.44,0.00624695950371403
37.52,0.006165129530490974
37.6,0.006043759900271214
37.68,0.0058995612670309635
37.76,0.005749539216732352
37.84,0.0056111985120583414
37.92,0.005500702496534182
38.0,0.005427770762535629
38.08,0.0053899334951975925
38.160000000000004,0.005371060288188231
38.24,0.005347128209765175
38.32,0.005297077966276811
38.4,0.005212596443842558
38.480000000000004,0.005101257259393616
38.56,0.004982044338846787
38.64,0.004876877016512947
38.72,0.0048028624039681824
38.800000000000004,0.004767676249108556
38.88,0.004767648277561832
38.96,0.004787444003840589
39.04,0.00480170528676827
39.12,0.0047803801797846384
39.2,0.0046984848711392226
39.28,0.004547626310563175
39.36,0.004343344632060813
39.44,0.004122594663067305
39.52,0.003930612612942004
39.6,0.003803183746038919
39.68,0.0037538891897340014
39.76,0.003773166149175359
39.84,0.003838660414373469
39.92,0.003929595005344852
40.0,0.00403626170685953
40.08,0.00415983600119651
40.160000000000004,0.004304249711140533
40.24,0.004466492720198835
40.32,0.004631944123046003
40.4,0.004777625089590065
40.480000000000004,0.004881294067495301
40.56,0.004931087876640686
40.64,0.004930527850258459
40.72,0.00489658338354152
40.800000000000004,0.004852104151074669
40.88,0.004816342855081652
40.96,0.00479767463537132
41.04,0.004791309857378703
41.12,0.004782624272597492
41.2,0.0047545005855765855
41.28,0.004695489365855489
41.36,0.004605278824168849
41.44,0.004495190892120264
41.52,0.004383705186708749
41.6,0.004289151150189976
41.68,0.004222614451642481
41.76,0.004183657967680343
41.84,0.00416035164812908
41.92,0.004133843218268756
42.0,0.004086173750365431
42.08,0.0040083327937583514
42.160000000000004,0.003904702559941113
42.24,0.0037913180100824584
42.32,0.003688606289749068
42.4,0.0036124617371631734
42.480000000000004,0.0035683729543070208
42.56,0.0035512231811485545
42.64,0.0035498400493331464
42.72,0.0035527870294883943
42.800000000000004,0.0035518621250003792
42.88,0.003542058084897953
42.96,0.0035195103813054395
43.04,0.003480158458758092
43.12,0.0034207454578164117
43.2,0.0033414770221477322
43.28,0.0032480730393792245
43.36,0.0031512479809013127
43.44,0.0030634609740182953
43.52,0.002994645218728463
43.6,0.0029492577630739827
43.68,0.0029260991396973853
43.76,0.00292066769569878
43.84,0.0029284299880744102
43.92,0.0029470666549354096
44.0,0.002976575043498837
44.08,0.0030175168434830747
44.160000000000004,0.0030688095591889335
44.24,0.00312658343730678
44.32,0.00318473583431211
44.4,0.0032366126053542423
44.480000000000004,0.003276627808959133
44.56,0.003300955564713333
44.64,0.00330724130426693
44.72,0.003293832521198848
44.800000000000004,0.003259034229251001
44.88,0.0032007000069832897
44.96,0.003116461793770779
45.04,0.0030049377910765576
45.12,0.002867899854074197
45.2,0.0027126099667529845
45.28,0.0025529499915066377
45.36,0.002408179042709029
45.44,0.002299130638454931
45.52,0.0022428192084391133
45.6,0.002247193999405433
45.68,0.0023079424452700312
45.76,0.0024087942381035253
45.84,0.0025257154693321578
45.92,0.002633867660828352
46.0,0.0027148153502715676
46.08,0.0027610747932751457
46.160000000000004,0.0027762353950937756
46.24,0.002771077382389721
46.32,0.0027579797725943087
46.4,0.002746237312223638
46.480000000000004,0.002739691664050189
46.56,0.002736536642402969
46.64,0.002730489187511044
46.72,0.002712834423244364
46.800000000000004,0.002675277047392722
46.88,0.002613291008886128
46.96,0.0025289216243405167
47.04,0.0024316302274080513
47.12,0.0023364065682296604
47.2,0.002259716993831158
47.28,0.0022149517751804057
47.36,0.0022091521816159157
47.44,0.0022420249957262953
47.52,0.0023072188438157115
47.6,0.0023950230959074448
47.68,0.002495176611474522
47.76,0.0025984674283587895
47.84,0.0026965217530476593
47.92,0.0027804782862794752
48.0,0.002840214818718694
48.08,0.0028654584278838165
48.160000000000004,0.002848589894183587
48.24,0.0027875775176196965
48.32,0.002687437452417573
48.4,0.0025597073621174728
48.480000000000004,0.002420407046756813
48.56,0.0022871066912715995
48.64,0.0021755008887504312
48.72,0.002096080256054622
48.800000000000004,0.002052013574808751
48.88,0.002039337029210494
48.96,0.002049538389388081
49.04,0.0020732726597030154
49.120000000000005,0.0021033572695562143
49.2,0.0021357877292287573
49.28,0.0021687167849884087
49.36,0.002200310117773732
49.44,0.002226772012897775
49.52,0.0022417348044115673
49.6,0.0022377167552556365
49.68,0.0022094124822522043
49.76,0.0021573792883802442
49.84,0.002089938446239066
49.92,0.002021613025388249
50.0,0.001968206412530319
50.08,0.0019406869032831918
50.160000000000004,0.0019410187756032683
50.24,0.001962244438973113
50.32,0.0019928620883390667
50.4,0.0020230887757359886
50.480000000000004,0.002049380968043961
50.56,0.0020745014940904034
50.64,0.002103168744244776
50.72,0.0021362527638183436
50.800000000000004,0.002167519638661495
50.88,0.0021851946495995977
50.96,0.002177354325012676
51.04,0.0021378174925943023
51.120000000000005,0.0020693681475104746
51.2,0.001983243047764399
51.28,0.0018958979565260325
51.36,0.0018247111809954406
51.44,0.0017837233232733188
51.52,0.0017799636863209678
51.6,0.0018110889844091815
51.68,0.001865474772648609
51.76,0.0019255435099657745
51.84,0.001973651439470909
51.92,0.0019981521434970107
52.0,0.001996714982872693
52.08,0.001975302200946955
52.160000000000004,0.0019436596508786309
52.24,0.0019100672729127199
52.32,0.0018781395108135104
52.4,0.0018467915457011028
52.480000000000004,0.001812452582392
52.56,0.0017716427491636533
52.64,0.0017225484281487707
52.72,0.0016654663566673805
52.800000000000004,0.001602787392709984
52.88,0.0015390304841574054
52.96,0.0014807687065611277
53.04,0.0014359539745222114
53.120000000000005,0.0014124768868928762
53.2,0.0014163539070427816
53.28,0.001450109734651775
53.36,0.0015116570341228847
53.44,0.0015937415194881453
53.52,0.0016841689456758126
53.6,0.0017673147575324134
53.68,0.0018272509707729272
53.76,0.0018519738513682478
53.84,0.0018371743022878155
53.92,0.0017876544375808063
54.0,0.0017153907225364844
54.08,0.0016349971644376467
54.160000000000004,0.0015588196746677517
54.24,0.001494030303915057
54.32,0.0014427499426798262
54.4,0.0014043595412989603
54.480000000000004,0.0013780649060807064
54.56,0.0013640882483852374
54.64,0.0013631082992500204
54.72,0.0013747317792469297
54.800000000000004,0.0013961677056195162
54.88,0.0014219531803062188
54.96,0.0014449861634829716
55.04,0.001458549689038642
