Frequency,PSD
6.057142857142857,0.05006487466110925
6.171428571428571,0.04994856812972772
6.285714285714286,0.0498007830257378
6.3999999999999995,0.04976303646885561
6.514285714285714,0.04999022431325557
6.628571428571428,0.050609335773826744
6.742857142857143,0.0516910201919844
6.857142857142857,0.05323412459039284
6.9714285714285715,0.0551572982991024
7.085714285714285,0.05729477092128892
7.2,0.05940175243089408
7.314285714285714,0.06118008964363999
7.428571428571428,0.06233045892963981
7.542857142857143,0.0626242099255898
7.657142857142857,0.06197352289999528
7.771428571428571,0.06047221987498255
7.885714285714285,0.058386711545608386
8.0,0.0560950261280517
8.114285714285714,0.05399307270458318
8.228571428571428,0.05240092817617691
8.342857142857143,0.051501399451674625
8.457142857142857,0.05132856439204255
8.571428571428571,0.051801945562314725
8.685714285714285,0.05278245653961068
8.799999999999999,0.054118939438480076
8.914285714285715,0.05566371160401479
9.028571428571428,0.05725787237684875
9.142857142857142,0.05870912972427046
9.257142857142856,0.05979160749129958
9.371428571428572,0.06028252079903024
9.485714285714286,0.06002392979190262
9.6,0.05897773773304905
9.714285714285714,0.05724300454751466
9.828571428571427,0.0550256245505876
9.942857142857143,0.05257681410566474
10.057142857142857,0.0501317378209733
10.17142857142857,0.047875202873568994
10.285714285714285,0.04594240246585371
10.4,0.044441538715531914
10.514285714285714,0.043473834465620226
10.628571428571428,0.04313049653541449
10.742857142857142,0.0434624358313703
10.857142857142858,0.04443721858207453
10.971428571428572,0.04590810701546334
11.085714285714285,0.047616661450890635
11.2,0.04923571548570657
11.314285714285713,0.050441702318677825
11.428571428571429,0.0509928045087213
11.542857142857143,0.05078706754723769
11.657142857142857,0.049882520271704346
11.77142857142857,0.04847552552034753
11.885714285714286,0.04684763821634513
12.0,0.04529902195241849
12.114285714285714,0.04408562642882416
12.228571428571428,0.04337109276156708
12.342857142857142,0.043198865907033764
12.457142857142857,0.04348861053327006
12.571428571428571,0.04406104307071789
12.685714285714285,0.044690876865055795
12.799999999999999,0.045176555568330966
12.914285714285715,0.04540325169317125
13.028571428571428,0.04537206418381005
13.142857142857142,0.04517973097312938
13.257142857142856,0.044956178408520515
13.371428571428572,0.044789844586063596
13.485714285714286,0.04467932852370278
13.6,0.04453788271653067
13.714285714285714,0.044249609801495296
13.828571428571427,0.043747611896997385
13.942857142857143,0.04307099122639031
14.057142857142857,0.042367568661390506
14.17142857142857,0.04183727230536221
14.285714285714285,0.04164211568711037
14.4,0.0418264837470734
14.514285714285714,0.04228779157849075
14.628571428571428,0.0428148463699762
14.742857142857142,0.04317987810666815
14.857142857142856,0.043243989877074986
14.971428571428572,0.043026852905094705
15.085714285714285,0.04270530210273124
15.2,0.042537158268541396
15.314285714285713,0.04274167721762096
15.428571428571429,0.04338938295607016
15.542857142857143,0.04435110960475616
15.657142857142857,0.04533037879673825
15.77142857142857,0.04596704606412366
15.885714285714284,0.04596997067569993
16.0,0.045225375499153814
16.114285714285714,0.043839578598658835
16.228571428571428,0.0421032497350551
16.34285714285714,0.040395461424383265
16.457142857142856,0.03906595513166186
16.57142857142857,0.03833676591501694
16.685714285714287,0.038252200223495104
16.8,0.03868687934507566
16.914285714285715,0.03940266446707397
17.02857142857143,0.040131607072224525
17.142857142857142,0.04065648612866176
17.257142857142856,0.04086446955126563
17.37142857142857,0.04076161602692399
17.485714285714284,0.04045096325015583
17.599999999999998,0.04008776407200561
17.714285714285715,0.039828160183713816
17.82857142857143,0.03978424571079907
17.942857142857143,0.039994223227406527
18.057142857142857,0.040413913381985106
18.17142857142857,0.04093318248542057
18.285714285714285,0.041414474896040505
18.4,0.041741136512677
18.514285714285712,0.041856357810902856
18.628571428571426,0.04177572908039319
18.742857142857144,0.04156847547958632
18.857142857142858,0.041318042524114654
18.97142857142857,0.04108247889513304
19.085714285714285,0.040873405513854495
19.2,0.04066108089621246
19.314285714285713,0.040399524562444174
19.428571428571427,0.04005738890637493
19.54285714285714,0.039640473958802304
19.657142857142855,0.03919832348363976
19.771428571428572,0.0388150956120194
19.885714285714286,0.0385894090010843
20.0,0.038608176675971106
20.114285714285714,0.03891840387785194
20.228571428571428,0.039502277556619045
20.34285714285714,0.040264876649568376
20.457142857142856,0.04104561864608309
20.57142857142857,0.041658123475015886
20.685714285714287,0.04194845114066079
20.8,0.041847498539123576
20.914285714285715,0.04139166209479199
21.02857142857143,0.04070106634491009
21.142857142857142,0.03992802473510814
21.257142857142856,0.03920391855887961
21.37142857142857,0.038609686442462855
21.485714285714284,0.0381768135119961
21.599999999999998,0.03790622625975067
21.714285714285715,0.03778542147002846
21.82857142857143,0.03779240190945922
21.942857142857143,0.037889869780007
22.057142857142857,0.038022310808926756
22.17142857142857,0.03812583017051568
22.285714285714285,0.038149549204533596
22.4,0.038077451540879645
22.514285714285712,0.037938007342571765
22.628571428571426,0.03779578413693751
22.742857142857144,0.03772884728436379
22.857142857142858,0.03780187424172658
22.97142857142857,0.038045158393898534
23.085714285714285,0.038445685773026234
23.2,0.03895127429750489
23.314285714285713,0.03948450302638267
23.428571428571427,0.0399606858771781
23.54285714285714,0.04030385575929303
23.657142857142855,0.04045685902293947
23.771428571428572,0.04038555925270076
23.885714285714286,0.0400806449892211
24.0,0.03956092785253694
24.114285714285714,0.03887845075228254
24.228571428571428,0.03812070825610758
24.34285714285714,0.037403221690269474
24.457142857142856,0.03684920171227708
24.57142857142857,0.036560291587483855
24.685714285714283,0.036588534616448884
24.8,0.0369207299337251
24.914285714285715,0.03748192291772354
25.02857142857143,0.03815768731264302
25.142857142857142,0.03882823107248795
25.257142857142856,0.03940303313169245
25.37142857142857,0.03984369980359395
25.485714285714284,0.04016598860505244
25.599999999999998,0.04041962755966639
25.71428571428571,0.040654308079841266
25.82857142857143,0.04088721639794574
25.942857142857143,0.041087189538851564
26.057142857142857,0.04118244567772226
26.17142857142857,0.04108722497189229
26.285714285714285,0.04073422347731835
26.4,0.04009882840162342
26.514285714285712,0.03920727161663673
26.628571428571426,0.038129204562994616
26.742857142857144,0.03696076556601662
26.857142857142858,0.035805011083176345
26.97142857142857,0.034754437083112995
27.085714285714285,0.03387831053290568
27.2,0.03321691239266322
27.314285714285713,0.03278424927675765
27.428571428571427,0.032578562040205775
27.54285714285714,0.03259631411285209
27.657142857142855,0.032842684016999066
27.771428571428572,0.03333219580887864
27.885714285714286,0.03407708683993572
28.0,0.03506642491854082
28.114285714285714,0.03624369210165194
28.228571428571428,0.03749315171954373
28.34285714285714,0.03864463744263277
28.457142857142856,0.03950121835771592
28.57142857142857,0.03988481732959474
28.685714285714283,0.039685140830264046
28.8,0.03889349345206081
28.914285714285715,0.03760899205585586
29.02857142857143,0.036017318404152524
29.142857142857142,0.03435304072189663
29.257142857142856,0.03285888456317997
29.37142857142857,0.03174982851525461
29.485714285714284,0.03118347116410554
29.599999999999998,0.031236804470701384
29.71428571428571,0.03189285468422302
29.82857142857143,0.03304301023779971
29.942857142857143,0.03450791176100083
30.057142857142857,0.03607289484990094
30.17142857142857,0.0375284200592313
30.285714285714285,0.03870543426727531
30.4,0.03949926360510927
30.514285714285712,0.03987977898238362
30.628571428571426,0.03988786352085087
30.74285714285714,0.0396192695918833
30.857142857142858,0.03919847687891301
30.97142857142857,0.03874742621647545
31.085714285714285,0.0383556702712581
31.2,0.03805838457119858
31.314285714285713,0.03782708243277423
31.428571428571427,0.03757582265206791
31.54285714285714,0.03718353007010915
31.657142857142855,0.03652996665492659
31.77142857142857,0.03553824073848814
31.885714285714286,0.034211802061073646
32.0,0.032652063564685266
32.114285714285714,0.031047333898879786
32.22857142857143,0.02963427283628138
32.34285714285714,0.028644544537863855
32.457142857142856,0.028255018516622855
32.57142857142857,0.028556425441119176
32.68571428571428,0.029545528301664965
32.8,0.03113616194035433
32.91428571428571,0.03318023220569754
33.028571428571425,0.03549146880381898
33.14285714285714,0.03786871570418014
33.25714285714285,0.040117665844151856
33.371428571428574,0.0420691199807734
33.48571428571429,0.04359057872245015
33.6,0.04458950665613906
33.714285714285715,0.04501122459945297
33.82857142857143,0.044838408729061224
33.94285714285714,0.044098020741033035
34.05714285714286,0.04287432629387158
34.17142857142857,0.04131818093164841
34.285714285714285,0.03963999011007356
34.4,0.038080236811639495
34.51428571428571,0.0368639029851723
34.628571428571426,0.03615527037628855
34.74285714285714,0.03603026319597058
34.857142857142854,0.03647390605295151
34.97142857142857,0.03739715509635716
35.08571428571428,0.03865972521630454
35.199999999999996,0.04008890756441379
35.31428571428572,0.04149545741309446
35.42857142857143,0.042696272146611564
35.542857142857144,0.04355050857027944
35.65714285714286,0.04400107930882136
35.77142857142857,0.04409841603034433
35.885714285714286,0.04398275790270453
36.0,0.0438208026497745
36.114285714285714,0.04372217561567983
36.22857142857143,0.04368020068891573
36.34285714285714,0.04357382662379053
36.457142857142856,0.04323488515273099
36.57142857142857,0.04254684182210591
36.68571428571428,0.041522265633759735
36.8,0.04031826168827148
36.91428571428571,0.03918344635629516
37.028571428571425,0.038364666825258416
37.14285714285714,0.0380171432283139
37.25714285714285,0.03815336928830841
37.371428571428574,0.038643937998238606
37.48571428571429,0.03926206976361982
37.6,0.039751891402550484
37.714285714285715,0.039898669295789835
37.82857142857143,0.03958301615308692
37.94285714285714,0.03880720095409845
38.05714285714286,0.03768908219992553
38.17142857142857,0.03642728628554749
38.285714285714285,0.0352482865835404
38.4,0.03434978212858296
38.51428571428571,0.03385442327046792
38.628571428571426,0.03378455105454908
38.74285714285714,0.034063699208131674
38.857142857142854,0.03454463836769878
38.97142857142857,0.035056640865491054
39.08571428571428,0.03545763108697789
39.199999999999996,0.03567336020518836
39.31428571428571,0.03570934886187688
39.42857142857143,0.03563232113004544
39.542857142857144,0.035531262628835485
39.65714285714286,0.03547657711443352
39.77142857142857,0.03549446664656541
39.885714285714286,0.035564266798705176
40.0,0.03563519925297932
40.114285714285714,0.03565166194744203
40.22857142857143,0.0355749005020526
40.34285714285714,0.0353926309850898
40.457142857142856,0.03511475169504563
40.57142857142857,0.03476030609391171
40.68571428571428,0.034345421224100905
40.8,0.0338812016994481
40.91428571428571,0.03338391252737295
41.028571428571425,0.03289055273933754
41.14285714285714,0.032467120377804665
41.25714285714285,0.032199254816745
41.371428571428574,0.03216515854964756
41.48571428571429,0.03240270714809931
41.6,0.03288839075139364
41.714285714285715,0.03354074336216535
41.82857142857143,0.034247870036757604
41.94285714285714,0.034905802231094823
42.05714285714286,0.03544972918677807
42.17142857142857,0.03586584941064836
42.285714285714285,0.03618284386186839
42.4,0.03645110948861001
42.51428571428571,0.03672020410072967
42.628571428571426,0.03702145181309875
42.74285714285714,0.037357879496989335
42.857142857142854,0.037701179931771966
42.97142857142857,0.03799536839664819
43.08571428571428,0.03816712675665375
43.199999999999996,0.03814193008966654
43.31428571428571,0.037863068784780074
43.42857142857143,0.03730869690484986
43.542857142857144,0.03650113810504225
43.65714285714286,0.035503918644192244
43.77142857142857,0.034406176356631644
43.885714285714286,0.033300344409944914
44.0,0.03226369753729119
44.114285714285714,0.03135291057313827
44.22857142857143,0.030612132664755994
44.34285714285714,0.030084408430958217
44.457142857142856,0.029812203114893694
44.57142857142857,0.029820195954726788
44.68571428571428,0.030088270056755437
44.8,0.03053373613652846
44.91428571428571,0.03101992150707472
45.028571428571425,0.03139350487083484
45.14285714285714,0.03153536177512451
45.25714285714285,0.03140124451915524
45.37142857142857,0.031034280124881575
45.48571428571429,0.030545955122441515
45.6,0.030076107025398972
45.714285714285715,0.029748696324043138
45.82857142857143,0.02963856818657658
45.94285714285714,0.029758551317051227
46.05714285714286,0.030068849124597403
46.17142857142857,0.030502763616866
46.285714285714285,0.030996063630612324
46.4,0.03150550540775987
46.51428571428571,0.03200811821062534
46.628571428571426,0.032484869846562826
46.74285714285714,0.032902847537943584
46.857142857142854,0.033211450423844734
46.97142857142857,0.03335858124548479
47.08571428571428,0.03331851644706348
47.199999999999996,0.03311370961420055
47.31428571428571,0.03281483939939439
47.42857142857143,0.03251604741270064
47.542857142857144,0.03229764780460403
47.65714285714286,0.03219673759068191
47.77142857142857,0.03220162250608209
47.885714285714286,0.03227155966884352
48.0,0.03236829861483835
48.114285714285714,0.0324797498674787
48.22857142857143,0.0326221805605643
48.34285714285714,0.03282132774986919
48.457142857142856,0.03308645384123013
48.57142857142857,0.033397569462128025
48.68571428571428,0.033721902679025244
48.8,0.0340626210694995
48.91428571428571,0.03452544208435859
49.028571428571425,0.03537340809184096
49.14285714285714,0.03703299308526828
49.25714285714285,0.040020706191454675
49.37142857142857,0.04478147211573719
49.48571428571429,0.051467896112802156
49.6,0.059734278521735636
49.714285714285715,0.06864889591008537
49.82857142857143,0.07681293852422508
49.94285714285714,0.08269918118851857
50.05714285714286,0.08511174888393835
50.17142857142857,0.08358321957542389
50.285714285714285,0.07853038033209311
50.4,0.07109683798102334
50.51428571428571,0.06276050531753213
50.628571428571426,0.05488628772616591
50.74285714285714,0.04840324707541851
50.857142857142854,0.043696481158788145
50.97142857142857,0.040692707390922
51.08571428571428,0.03904811628403104
51.199999999999996,0.03833941059032357
51.31428571428571,0.03819517940737799
51.42857142857142,0.03835114071037646
51.542857142857144,0.03864540616383887
51.65714285714286,0.03898269071115966
51.77142857142857,0.03929488851793867
51.885714285714286,0.0395171303969264
52.0,0.03958739109961665
52.114285714285714,0.039465537311261095
52.22857142857143,0.03915711920024752
52.34285714285714,0.03872317845506416
52.457142857142856,0.038263825992522954
52.57142857142857,0.03787859594317492
52.68571428571428,0.037622196130278354
52.8,0.0374799375015535
52.91428571428571,0.03737796641806938
53.028571428571425,0.03722415313808773
53.14285714285714,0.036957852287039974
53.25714285714285,0.036581844935673236
53.37142857142857,0.036160568259280865
53.48571428571429,0.0357881137683287
53.6,0.035545219831912625
53.714285714285715,0.03546767451859383
53.82857142857143,0.03553910446185241
53.94285714285714,0.035706681523025245
54.05714285714286,0.035907860010587524
54.17142857142857,0.036094285218346255
54.285714285714285,0.03624392992957886
54.4,0.03635974979018414
54.51428571428571,0.03645883016543981
54.628571428571426,0.036558540842816276
54.74285714285714,0.03666581669311746
54.857142857142854,0.03677330315227289
54.97142857142857,0.036862895574094584
55.08571428571428,0.036914272608939
