Frequency,PSD
6.0,0.3688491962016699
6.08,0.36759087092121745
6.16,0.36428738677128847
6.24,0.3591183647085775
6.32,0.35506217704427157
6.4,0.3578041030221893
6.48,0.37306378639425597
6.5600000000000005,0.40274240245933
6.640000000000001,0.44250578426525755
6.72,0.48282507875611363
6.8,0.5133877271080693
6.88,0.5284818828513195
6.96,0.5299795347167613
7.04,0.5257975236764453
7.12,0.5247079443054038
7.2,0.5310444357775393
7.28,0.5429115198464317
7.36,0.5546852096695029
7.44,0.5613350872550011
7.5200000000000005,0.5612470636724456
7.6000000000000005,0.5561552948584401
7.68,0.5492863784279843
7.76,0.543627223481788
7.84,0.5412064103987063
7.92,0.5430281819293776
8.0,0.5491244046483055
8.08,0.558796285228742
8.16,0.5713529115454564
8.24,0.5871188492809802
8.32,0.6078851491784274
8.4,0.6360701295669886
8.48,0.6726436566124999
8.56,0.7148495091356305
8.64,0.7553446096282003
8.72,0.7839867325447304
8.8,0.7919401495411325
8.88,0.7758656306878144
8.96,0.7394271331624191
9.040000000000001,0.6911517298325351
9.120000000000001,0.6405271133871459
9.200000000000001,0.5954189533797379
9.28,0.5622391289250692
9.36,0.5475856933476864
9.44,0.5590228120502332
9.52,0.6037783166800632
9.6,0.6855997708172183
9.68,0.8006189460351116
9.76,0.9337629825014505
9.84,1.0587402279849576
9.92,1.1447691748326152
10.0,1.169206954164397
10.08,1.1290038397808115
10.16,1.042290501497694
10.24,0.9381263794833444
10.32,0.8418808606116668
10.4,0.7664086417593798
10.48,0.712934190734916
10.56,0.6775306479973784
10.64,0.6566892091947121
10.72,0.6488362939066292
10.8,0.6527822273807602
10.88,0.6655493215946989
10.96,0.6813796946376538
11.040000000000001,0.6927712525467542
11.120000000000001,0.6934794889467677
11.200000000000001,0.6820412777767311
11.28,0.6632073286527556
11.36,0.6454525907763178
11.44,0.6357297094349001
11.52,0.6353153698796765
11.6,0.6400096932882959
11.68,0.6442169089506176
11.76,0.6450964642007659
11.84,0.6433320937088238
11.92,0.6406309016103184
12.0,0.6370939841619511
12.08,0.6311510516924521
12.16,0.6216934055689672
12.24,0.6098015594375362
12.32,0.5981822180185278
12.4,0.5889196228147128
12.48,0.5816727472128898
12.56,0.5738007344397832
12.64,0.5621895562379828
12.72,0.5454248489500737
12.8,0.5249084782705448
12.88,0.5041646412132338
12.96,0.4866156376859554
13.040000000000001,0.47321726874823666
13.120000000000001,0.46171734644795503
13.200000000000001,0.4482668410915729
13.280000000000001,0.4303160109008472
13.36,0.40878039866467974
13.44,0.3881437171598104
13.52,0.37460144534366413
13.6,0.37326037394193856
13.68,0.385551374345239
13.76,0.40790996465188
13.84,0.4325400041026308
13.92,0.45027251757525977
14.0,0.45426013404820526
14.08,0.4425438109575758
14.16,0.41823136242962494
14.24,0.3875956515903328
14.32,0.35744833133400267
14.4,0.3330228779962109
14.48,0.31688199503575554
14.56,0.30882869185659495
14.64,0.3065782342043974
14.72,0.3068146595918828
14.8,0.3061960746562536
14.88,0.3020247481510805
14.96,0.2926038290877859
15.040000000000001,0.2774900842230818
15.120000000000001,0.25772344017315924
15.200000000000001,0.23580495766808804
15.280000000000001,0.21511047415714996
15.36,0.19879327889070417
15.44,0.18872429094117327
15.52,0.18507622531335
15.6,0.186666492372458
15.68,0.1916332857143471
15.76,0.1979453465314061
15.84,0.20360788178243802
15.92,0.20677842086038384
16.0,0.2060209835771318
16.080000000000002,0.2006831449562761
16.16,0.19117396033964862
16.240000000000002,0.17893192597674973
16.32,0.16605217639912956
16.4,0.15472433923474133
16.48,0.14668228907683098
16.56,0.14278213406749274
16.64,0.14274875727201308
16.72,0.14519251329975041
16.8,0.14808069392139472
16.88,0.1496691242494462
16.96,0.14944512964057033
17.04,0.14837019461237105
17.12,0.1480939811521575
17.2,0.14963712347129607
17.28,0.15254612826633235
17.36,0.15518547853404724
17.44,0.15591235867437303
17.52,0.15417084955194682
17.6,0.1506528257818668
17.68,0.14650379275838737
17.76,0.14236407481961938
17.84,0.1380895339481897
17.92,0.1332685325478149
18.0,0.12789301186036847
18.080000000000002,0.12250020383223112
18.16,0.11773223077591899
18.240000000000002,0.11383399298652075
18.32,0.1105679063180563
18.400000000000002,0.10753793413171285
18.48,0.10456019255662743
18.56,0.10178881998121153
18.64,0.09959263394843448
18.72,0.09833246554474012
18.8,0.098142819115689
18.88,0.0987606233915578
18.96,0.09947954555017235
19.04,0.09933451731051621
19.12,0.09750975159044137
19.2,0.09378085453233873
19.28,0.08875191866947993
19.36,0.08381826621288564
19.44,0.08099279399750556
19.52,0.08269582042512116
19.6,0.09131037048172738
19.68,0.10815666567507398
19.76,0.13199767283417904
19.84,0.1580772392124963
19.92,0.1790323003174837
20.0,0.1879485477230616
20.080000000000002,0.18191207895556322
20.16,0.16354069153794795
20.240000000000002,0.1393474348724446
20.32,0.11623626789010594
20.400000000000002,0.09859427689038178
20.48,0.08745263866639488
20.56,0.0814044926350575
20.64,0.07809870807342129
20.72,0.07544046143574114
20.8,0.0722604464611654
20.88,0.06850038010051819
20.96,0.06496307125601031
21.04,0.06271967464427021
21.12,0.06243790987896336
21.2,0.06399597455291064
21.28,0.0665931133616109
21.36,0.06923017607713125
21.44,0.07119281183523848
21.52,0.07223171048486676
21.6,0.07241383771249599
21.68,0.07184869319836569
21.76,0.07051445059575269
21.84,0.06828017628339389
21.92,0.06507686288140267
22.0,0.06108190480300346
22.080000000000002,0.05677225719711125
22.16,0.05278541502492372
22.240000000000002,0.04966686278851469
22.32,0.04767277430668338
22.400000000000002,0.04675737438816601
22.48,0.04673872600080737
22.56,0.04751582949697891
22.64,0.049181707843280076
22.72,0.051936284797214294
22.8,0.05581173835554601
22.88,0.0603579744849773
22.96,0.06453913057839819
23.04,0.06703529673716188
23.12,0.06686574454768232
23.2,0.0639398591669318
23.28,0.05912765731173479
23.36,0.053801402951482044
23.44,0.049201281171543584
23.52,0.046035563469867286
23.6,0.0444423192311278
23.68,0.044159802848172724
23.76,0.04472130091586647
23.84,0.04561673329655843
23.92,0.0464320320785761
24.0,0.046941806663703275
24.080000000000002,0.047108732297201625
24.16,0.047001822787095804
24.240000000000002,0.04671070519771534
24.32,0.046312189035725565
24.400000000000002,0.04586507449809796
24.48,0.04537937482855161
24.560000000000002,0.04477108620040707
24.64,0.04388253014984054
24.72,0.042607151582736424
24.8,0.04103097351041031
24.88,0.03944475372009022
24.96,0.03818400798428423
25.04,0.0374207088320391
25.12,0.037080537078030974
25.2,0.03694017136854516
25.28,0.03679742029516489
25.36,0.03656168398340002
25.44,0.03621304105402573
25.52,0.035715559391178354
25.6,0.03501019509801972
25.68,0.03411623047462078
25.76,0.03323040012124749
25.84,0.032677612497159496
25.92,0.032695468097449915
26.0,0.03321588300134139
26.080000000000002,0.03385370018922883
26.16,0.03415545261751054
26.240000000000002,0.03393667644791608
26.32,0.033452349322594846
26.400000000000002,0.03327402540175315
26.48,0.03395964376884304
26.560000000000002,0.03571577707166409
26.64,0.03821871446545346
26.72,0.04066996645444276
26.8,0.042084054681077815
26.88,0.0417165136446048
26.96,0.03943123321470902
27.04,0.035783924763192906
27.12,0.031753128463619565
27.2,0.02828542600545439
27.28,0.025929204921943873
27.36,0.024732219938880497
27.44,0.02438981353214371
27.52,0.02450238656658091
27.6,0.02478061440241837
27.68,0.025101590259417206
27.76,0.02542919051171523
27.84,0.025704822038635423
27.92,0.025819508358388647
28.0,0.025687846014005374
28.080000000000002,0.025340496690018012
28.16,0.024930275066848192
28.240000000000002,0.02462618680938742
28.32,0.024477309926797974
28.400000000000002,0.024365446214725035
28.48,0.02409441318402966
28.560000000000002,0.02354632329681989
28.64,0.022778295009929023
28.72,0.021986581712385368
28.8,0.02137525755135434
28.88,0.021034079071668668
28.96,0.020905942980847386
29.04,0.020844745556125206
29.12,0.020703162214693784
29.2,0.020388933753609756
29.28,0.019873185219955233
29.36,0.019179380335139287
29.44,0.018388404492279346
29.52,0.017659482265546624
29.6,0.01722308789652
29.68,0.017300560627982253
29.76,0.01796414336390935
29.84,0.01902830334980154
29.92,0.020080007458425607
30.0,0.020669553288048242
30.080000000000002,0.02054939520778115
30.16,0.019790711855171478
30.240000000000002,0.018697499260128547
30.32,0.01760085566112765
30.400000000000002,0.01669779231898511
30.48,0.016031034743410538
30.560000000000002,0.015571808074648263
30.64,0.015298245574682613
30.72,0.015204189046061533
30.8,0.015263163993164781
30.88,0.01541590681457275
30.96,0.015611764582651597
31.04,0.01586357447395338
31.12,0.016250410212539652
31.2,0.0168487283448368
31.28,0.017640952273840882
31.36,0.018475189228112785
31.44,0.01911279013490482
31.52,0.019337328824420838
31.6,0.01905752111949454
31.68,0.01834357168741068
31.76,0.017382597449687218
31.84,0.01638805046193968
31.92,0.015516173994746965
32.0,0.014826381387266947
32.08,0.014294170771146135
32.160000000000004,0.013861247469190853
32.24,0.013490636178121036
32.32,0.013191442303369345
32.4,0.012998818025328655
32.480000000000004,0.012929633993715717
32.56,0.012952373876156257
32.64,0.01299352109323593
32.72,0.012970462405459099
32.8,0.01282425991177466
32.88,0.012534845188367729
32.96,0.01212077743875051
33.04,0.011635663167183655
33.12,0.011166767132775883
33.2,0.01082753232899028
33.28,0.010732061753362717
33.36,0.010954101631450684
33.44,0.011491140596174418
33.52,0.012253474172524894
33.6,0.013079855461448003
33.68,0.013771106894806439
33.76,0.014140261490985804
33.84,0.01407819558526658
33.92,0.01361086358791553
34.0,0.012905712517674181
34.08,0.01220657353421042
34.160000000000004,0.01172625276594673
34.24,0.011556261810456898
34.32,0.011639539552791543
34.4,0.011813441673464839
34.480000000000004,0.01189566033128945
34.56,0.011768898910249192
34.64,0.011423873445513743
34.72,0.010942951156638792
34.800000000000004,0.010439497246384351
34.88,0.009993631551738108
34.96,0.009625781112282615
35.04,0.009320212516202835
35.12,0.009070844831948057
35.2,0.008905231337225235
35.28,0.008865970432758679
35.36,0.008969319806388557
35.44,0.009179590223669595
35.52,0.00942152420365949
35.6,0.009621862075156348
35.68,0.009751481827056135
35.76,0.009839183307025013
35.84,0.009943910762277583
35.92,0.010099273623322913
36.0,0.010270562835191658
36.08,0.010365979752623494
36.160000000000004,0.010306087558342152
36.24,0.010102528237032225
36.32,0.0098795405912773
36.4,0.009813112177285869
36.480000000000004,0.010026497144405426
36.56,0.010509430327716207
36.64,0.0111051687635168
36.72,0.011567098560895798
36.800000000000004,0.011657873403994741
36.88,0.011250761221171461
36.96,0.010387715312330188
37.04,0.009261128626575982
37.12,0.00812568947843522
37.2,0.007191721383554045
37.28,0.006561406593392513
37.36,0.006232297207781443
37.44,0.006143012408896517
37.52,0.0062176394713907256
37.6,0.006385806436994344
37.68,0.006585947353799439
37.76,0.006770402381447289
37.84,0.0069189930820271195
37.92,0.007050015111307547
38.0,0.0072120175347583975
38.08,0.007451152907525049
38.160000000000004,0.007769228653778423
38.24,0.00810190601450859
38.32,0.008340496645663692
38.4,0.008391958195867993
38.480000000000004,0.00823866215687196
38.56,0.007953230277093055
38.64,0.007656430417319398
38.72,0.007450725589489923
38.800000000000004,0.007376326708274668
38.88,0.007410173416807116
38.96,0.007493141680515077
39.04,0.007561311829581625
39.12,0.007573578541851344
39.2,0.007546919482313958
39.28,0.00761839011200183
39.36,0.00814952681292942
39.44,0.009860958969723178
39.52,0.013901875400237598
39.6,0.021641194514718846
39.68,0.03397005099467752
39.76,0.0502323161076424
39.84,0.0674726919777886
39.92,0.08093717534021996
40.0,0.08607725168915503
40.08,0.08098670475974686
40.160000000000004,0.06751749040881683
40.24,0.0502005548408645
40.32,0.03382278377049824
40.4,0.021402309962771572
40.480000000000004,0.013643647333313096
40.56,0.0096517676474411
40.64,0.00800047005488763
40.72,0.007468818381170502
40.800000000000004,0.007299528991171608
40.88,0.007152631190904266
40.96,0.006955557064859284
41.04,0.006764518313126635
41.12,0.006675466859334231
41.2,0.006776180911905977
41.28,0.007111408272566498
41.36,0.007646531007081451
41.44,0.008248722789593318
41.52,0.008718524797314019
41.6,0.008873891744277695
41.68,0.0086387448098018
41.76,0.008073756497729217
41.84,0.007329905470915836
41.92,0.006565162105242324
42.0,0.005884205777955316
42.08,0.005329031064461405
42.160000000000004,0.0049045764023985475
42.24,0.004607794629428157
42.32,0.004441837206045473
42.4,0.0044151297315922315
42.480000000000004,0.004532724899475506
42.56,0.004787233444168127
42.64,0.005154971192006621
42.72,0.005599214699985597
42.800000000000004,0.006076107444349084
42.88,0.006536323008700814
42.96,0.006922905676421194
43.04,0.007175492072069418
43.12,0.007248550785117409
43.2,0.007135682510043982
43.28,0.006882047217372884
43.36,0.006575356729855617
43.44,0.006320328653659263
43.52,0.0062047620489229325
43.6,0.006262975725968107
43.68,0.006449967737779177
43.76,0.006649771644515615
43.84,0.006728489466940437
43.92,0.0066055309691960985
44.0,0.006293373820021437
44.08,0.005878313734334222
44.160000000000004,0.005463358264379834
44.24,0.005119864928884712
44.32,0.0048751621441084836
44.4,0.004726840387378633
44.480000000000004,0.0046588131303840164
44.56,0.004646424414647848
44.64,0.004656325098782313
44.72,0.004652342835270587
44.800000000000004,0.004610402633382863
44.88,0.004534145845404205
44.96,0.004458024189348863
45.04,0.004430572596470879
45.12,0.00448456909329824
45.2,0.004613176285102388
45.28,0.004770659460185435
45.36,0.00490005758237249
45.44,0.004969384551038788
45.52,0.004990370779057746
45.6,0.005007193001135297
45.68,0.005065323458192158
45.76,0.0051824118588925105
45.84,0.0053367679885681085
45.92,0.005475583635598906
46.0,0.0055371359403910345
46.08,0.005478739357208462
46.160000000000004,0.00529932106284616
46.24,0.0050442850357712045
46.32,0.004787832605566058
46.4,0.004601763370265738
46.480000000000004,0.004527348402669834
46.56,0.0045615236501510975
46.64,0.004658830343076473
46.72,0.00474686244742931
46.800000000000004,0.0047530344266721695
46.88,0.0046352846666407495
46.96,0.00440135236434552
47.04,0.00410366325566144
47.12,0.003812824483611383
47.2,0.0035872210636368577
47.28,0.003454779965014077
47.36,0.0034102794465214973
47.44,0.003422990633298933
47.52,0.0034502089692213522
47.6,0.0034543736849092926
47.68,0.0034187103503420524
47.76,0.0033531388380869664
47.84,0.003285928086650368
47.92,0.003246155717736253
48.0,0.0032484284229903314
48.08,0.003288334616517608
48.160000000000004,0.0033484116823898416
48.24,0.003408567377529252
48.32,0.0034551883444096723
48.4,0.003485651006031147
48.480000000000004,0.0035062678537916073
48.56,0.0035240682310912555
48.64,0.003538094230925489
48.72,0.0035389178313667037
48.800000000000004,0.0035192332318922243
48.88,0.0034869915775183336
48.96,0.0034679466707524496
49.04,0.0034933824683324767
49.120000000000005,0.0035837045005111465
49.2,0.003746811698203713
49.28,0.004007241495936776
49.36,0.00447099934089255
49.44,0.00540970882706323
49.52,0.007307857643220374
49.6,0.010771018769729756
49.68,0.016206035057252533
49.76,0.02333645919901874
49.84,0.030866490893689102
49.92,0.03670514327757288
50.0,0.03885447470645195
50.08,0.03648427454163909
50.160000000000004,0.030420324180154574
50.24,0.022664227784151263
50.32,0.015323168967137524
50.4,0.00971994229518245
50.480000000000004,0.0061610129426626845
50.56,0.004261839796473946
50.64,0.0034218233419758964
50.72,0.0031389857432338915
50.800000000000004,0.003103759562290958
50.88,0.0031626130017523707
50.96,0.0032518004668091044
51.04,0.0033499806693139574
51.120000000000005,0.0034555911046234115
51.2,0.003577490600328269
51.28,0.0037262608712661585
51.36,0.0039010008982013657
51.44,0.004077844253289383
51.52,0.004212326293577791
51.6,0.004259346692730452
51.68,0.004197895442048455
51.76,0.004041436477718726
51.84,0.0038273355581146078
51.92,0.003596306629874372
52.0,0.003377142376608652
52.08,0.00318255054404735
52.160000000000004,0.003012753986394662
52.24,0.002862364426792557
52.32,0.0027279623376942185
52.4,0.0026135862313940873
52.480000000000004,0.0025313041559178566
52.56,0.0024972159402783696
52.64,0.002526518385369556
52.72,0.0026301170641414903
52.800000000000004,0.0028110716700863615
52.88,0.003057932066274525
52.96,0.003336842677165181
53.04,0.003590854696001993
53.120000000000005,0.0037548063441335874
53.2,0.0037838138366693645
53.28,0.0036802005742307296
53.36,0.0035003782305869898
53.44,0.003334302170426408
53.52,0.003266533865010036
53.6,0.0033375365462837885
53.68,0.0035234096701587626
53.76,0.0037451968853831168
53.84,0.003906437562851781
53.92,0.003941175876105197
54.0,0.003844334052363434
54.08,0.0036654639724752625
54.160000000000004,0.0034730227679280034
54.24,0.0033172844267085125
54.32,0.003216195439977136
54.4,0.003165181775761439
54.480000000000004,0.003153042463975705
54.56,0.003167996053833244
54.64,0.0031942484792875565
54.72,0.003210830171553925
54.800000000000004,0.0032000162146008752
54.88,0.0031596568775513426
54.96,0.0031073795837304376
55.04,0.0030709848438700837
