Frequency,PSD
6.057142857142857,0.19211136282090419
6.171428571428571,0.19404675184846415
6.285714285714286,0.1988799233092305
6.3999999999999995,0.20787376268716903
6.514285714285714,0.22170608899135624
6.628571428571428,0.23992210782422013
6.742857142857143,0.26102339124566293
6.857142857142857,0.2830594782842663
6.9714285714285715,0.30431319694256065
7.085714285714285,0.32372442815914004
7.2,0.3409610499788712
7.314285714285714,0.35625557749852904
7.428571428571428,0.37016412600654885
7.542857142857143,0.3833854670470075
7.657142857142857,0.39679822042960744
7.771428571428571,0.41181060256546054
7.885714285714285,0.43084291741100056
8.0,0.45747401292633183
8.114285714285714,0.49585378068136227
8.228571428571428,0.5494642118479061
8.342857142857143,0.6197949881302436
8.457142857142857,0.7055895238360175
8.571428571428571,0.8030352333795701
8.685714285714285,0.9068842302469224
8.799999999999999,1.0121297828102829
8.914285714285715,1.1155328301321725
9.028571428571428,1.2161374335820287
9.142857142857142,1.3142181154991406
9.257142857142856,1.4089352832819046
9.371428571428572,1.495945886261501
9.485714285714286,1.5666430403803355
9.6,1.6100816932032913
9.714285714285714,1.6171361713481291
9.828571428571427,1.58491956238742
9.942857142857143,1.5190721881115241
10.057142857142857,1.4326094132433222
10.17142857142857,1.341904428512665
10.285714285714285,1.2618019293906286
10.4,1.2019952333672859
10.514285714285714,1.1657808909477183
10.628571428571428,1.1509128291781408
10.742857142857142,1.1513645194225814
10.857142857142858,1.1588443471348355
10.971428571428572,1.1637261016964409
11.085714285714285,1.1559132443768374
11.2,1.1263084662019236
11.314285714285713,1.0689217794496981
11.428571428571429,0.9828382970597721
11.542857142857143,0.8729857879590808
11.657142857142857,0.7490987899617829
11.77142857142857,0.6231353269886608
11.885714285714286,0.5061281607630754
12.0,0.40565884357933835
12.114285714285714,0.32477471739678365
12.228571428571428,0.26248041044185544
12.342857142857142,0.21529938073054297
12.457142857142857,0.17909248776942346
12.571428571428571,0.1504118250705997
12.685714285714285,0.12704659865495466
12.799999999999999,0.10786125320384993
12.914285714285715,0.09230759162782975
13.028571428571428,0.07999940803874517
13.142857142857142,0.07053270042182341
13.257142857142856,0.06349808022113956
13.371428571428572,0.058525524157139214
13.485714285714286,0.055257431679154756
13.6,0.05327093778034889
13.714285714285714,0.052042506251602505
13.828571428571427,0.05101649866038553
13.942857142857143,0.04975066914064759
14.057142857142857,0.04804938010153521
14.17142857142857,0.046004179436971784
14.285714285714285,0.04392088055142993
14.4,0.04217320908601413
14.514285714285714,0.041052206969889024
14.628571428571428,0.04067247332689362
14.742857142857142,0.04096169211856655
14.857142857142856,0.04171758228487637
14.971428571428572,0.04268934767963132
15.085714285714285,0.04364351621240038
15.2,0.04440004819779866
15.314285714285713,0.044850915417458254
15.428571428571429,0.04498087607433303
15.542857142857143,0.04489570389378098
15.657142857142857,0.044836662578614246
15.77142857142857,0.04514060151455655
15.885714285714284,0.04611791623047628
16.0,0.04787836752672741
16.114285714285714,0.05020642868027995
16.228571428571428,0.05260178790350624
16.34285714285714,0.05451001316338697
16.457142857142856,0.05562232051631169
16.57142857142857,0.056046964628007234
16.685714285714287,0.05623187847005547
16.8,0.056697577241528914
16.914285714285715,0.05777398582308908
17.02857142857143,0.0595166971674307
17.142857142857142,0.06182924701693439
17.257142857142856,0.06466037230252623
17.37142857142857,0.06809781515947319
17.485714285714284,0.07227361531980046
17.599999999999998,0.07715533186292457
17.714285714285715,0.08239842001551992
17.82857142857143,0.08739711336566029
17.942857142857143,0.0915252553460637
18.057142857142857,0.09441984602157177
18.17142857142857,0.09613019757349407
18.285714285714285,0.09704533651731644
18.4,0.09765037214230414
18.514285714285712,0.09826055194431206
18.628571428571426,0.0988868513913742
18.742857142857144,0.09929870519800699
18.857142857142858,0.09921896815338105
18.97142857142857,0.09850005845628046
19.085714285714285,0.09715883947243262
19.2,0.09527609588522336
19.314285714285713,0.0928846913465737
19.428571428571427,0.08996777195140164
19.54285714285714,0.08656853405354889
19.657142857142855,0.08289765680248938
19.771428571428572,0.07932586446905018
19.885714285714286,0.07625452318097867
20.0,0.0739550129938689
20.114285714285714,0.07247470124986874
20.228571428571428,0.07164390292419404
20.34285714285714,0.07115819534133423
20.457142857142856,0.07069233103630912
20.57142857142857,0.07001016756557317
20.685714285714287,0.06904566716684409
20.8,0.06793892895853208
20.914285714285715,0.06701926712826185
21.02857142857143,0.06673102369969182
21.142857142857142,0.06750352617069343
21.257142857142856,0.06958997184168478
21.37142857142857,0.0729369772934583
21.485714285714284,0.07716209105540596
21.599999999999998,0.0816783846987172
21.714285714285715,0.08592323435180044
21.82857142857143,0.08957468792715556
21.942857142857143,0.0926310255082533
22.057142857142857,0.09530643147494572
22.17142857142857,0.09781375123326938
22.285714285714285,0.10017755628319691
22.4,0.10218891239307608
22.514285714285712,0.1035062651378607
22.628571428571426,0.10381600195433577
22.742857142857144,0.10295594998824882
22.857142857142858,0.10095962293508057
22.97142857142857,0.09803690344474257
23.085714285714285,0.09452661912534076
23.2,0.09084075780988987
23.314285714285713,0.087396222224983
23.428571428571427,0.08452632723529946
23.54285714285714,0.08239140209969269
23.657142857142855,0.08094193621831781
23.771428571428572,0.07998043425103386
23.885714285714286,0.07930062785865807
24.0,0.0788070097843499
24.114285714285714,0.07851554822721298
24.228571428571428,0.07842623416642458
24.34285714285714,0.07836520426965787
24.457142857142856,0.0779272919069242
24.57142857142857,0.07658842952189578
24.685714285714283,0.07395213933746118
24.8,0.07000832301109416
24.914285714285715,0.06525674592791676
25.02857142857143,0.06060177610169057
25.142857142857142,0.05704463105380933
25.257142857142856,0.055317644759952794
25.37142857142857,0.055637176282146664
25.485714285714284,0.05767400504880063
25.599999999999998,0.06071874402166605
25.71428571428571,0.06394392410500374
25.82857142857143,0.06665956218824237
25.942857142857143,0.0684856821460845
26.057142857142857,0.06939082289776108
26.17142857142857,0.06958482342820785
26.285714285714285,0.06932425871473986
26.4,0.06875079198804804
26.514285714285712,0.06786620526894768
26.628571428571426,0.0666418517037066
26.742857142857144,0.06514966989794756
26.857142857142858,0.06358985452209606
26.97142857142857,0.06218897518115574
27.085714285714285,0.06105836055623619
27.2,0.060131222535894494
27.314285714285713,0.05922108438203068
27.428571428571427,0.05814083336255661
27.54285714285714,0.05678367815311636
27.657142857142855,0.05511899899139598
27.771428571428572,0.053139690003073864
27.885714285714286,0.05083340521964595
28.0,0.04821221813227944
28.114285714285714,0.04537008051800375
28.228571428571428,0.042510084399911725
28.34285714285714,0.03991118964698491
28.457142857142856,0.037849438539649824
28.57142857142857,0.03651089793638246
28.685714285714283,0.03592914645131085
28.8,0.03596896953558391
28.914285714285715,0.03636716182420956
29.02857142857143,0.036821311650481386
29.142857142857142,0.03708926889962894
29.257142857142856,0.03704924505992289
29.37142857142857,0.03669325453090688
29.485714285714284,0.036072015183235266
29.599999999999998,0.03523965966084815
29.71428571428571,0.03423663190105857
29.82857142857143,0.03311045811148342
29.942857142857143,0.031941368557671365
30.057142857142857,0.030839151329775553
30.17142857142857,0.029906577893267883
30.285714285714285,0.029196017062145353
30.4,0.028691323768401555
30.514285714285712,0.028323719378922946
30.628571428571426,0.028003200667547166
30.74285714285714,0.027642065947203025
30.857142857142858,0.027163826122071213
30.97142857142857,0.026506851886572046
31.085714285714285,0.025632311101742505
31.2,0.024535898291706545
31.314285714285713,0.023256015839890582
31.428571428571427,0.021872540765212355
31.54285714285714,0.0204961657898326
31.657142857142855,0.019252678933024344
31.77142857142857,0.018265623866272333
31.885714285714286,0.017635347403433616
32.0,0.017409882216571894
32.114285714285714,0.017551827513287557
32.22857142857143,0.017922278036401895
32.34285714285714,0.018309526753002205
32.457142857142856,0.018509283841250238
32.57142857142857,0.018421577584748126
32.68571428571428,0.018101908330614813
32.8,0.01772352322279211
32.91428571428571,0.017468407906438527
33.028571428571425,0.017419453118221837
33.14285714285714,0.017526591905795735
33.25714285714285,0.017662343455115706
33.371428571428574,0.017714699922957114
33.48571428571429,0.017643471522744977
33.6,0.017465012138965477
33.714285714285715,0.017192911281684993
33.82857142857143,0.01679495312044754
33.94285714285714,0.016205613657649658
34.05714285714286,0.015382172809216242
34.17142857142857,0.014356686138772036
34.285714285714285,0.013241932503191636
34.4,0.01218617187903126
34.51428571428571,0.011307286818483309
34.628571428571426,0.010647204247915008
34.74285714285714,0.010170267913145636
34.857142857142854,0.009800345512281202
34.97142857142857,0.009470595205779626
35.08571428571428,0.009157419944050206
35.199999999999996,0.008883350984727308
35.31428571428572,0.008692237322420329
35.42857142857143,0.008614781087702071
35.542857142857144,0.00864706167219101
35.65714285714286,0.008756033689148632
35.77142857142857,0.00890699802995942
35.885714285714286,0.009090911561865112
36.0,0.00932857802968887
36.114285714285714,0.00964666106117003
36.22857142857143,0.010042686896275327
36.34285714285714,0.010464659310885317
36.457142857142856,0.010820577474017802
36.57142857142857,0.011013942372983367
36.68571428571428,0.010986261075360175
36.8,0.010743530571623104
36.91428571428571,0.010351815679030782
37.028571428571425,0.009904146901718681
37.14285714285714,0.009478042891740378
37.25714285714285,0.009108096948753249
37.371428571428574,0.008786739461267361
37.48571428571429,0.008487450957536554
37.6,0.00819284498358512
37.714285714285715,0.007911538493803228
37.82857142857143,0.00767730509112469
37.94285714285714,0.007533357943569217
38.05714285714286,0.007510366769932095
38.17142857142857,0.007609159524322803
38.285714285714285,0.007796967488485797
38.4,0.008018528895180168
38.51428571428571,0.008214335672023676
38.628571428571426,0.00833543326514678
38.74285714285714,0.008350139058385773
38.857142857142854,0.00824607739474418
38.97142857142857,0.00803229859034477
39.08571428571428,0.0077408060669081295
39.199999999999996,0.0074226325702036544
39.31428571428571,0.007136199419337774
39.42857142857143,0.006931544907471397
39.542857142857144,0.0068365112396251565
39.65714285714286,0.006849261539394785
39.77142857142857,0.0069395964715569065
39.885714285714286,0.0070606683890663425
40.0,0.0071694466139664865
40.114285714285714,0.00724764071527692
40.22857142857143,0.007310544588946075
40.34285714285714,0.007396053720940085
40.457142857142856,0.007538448847883966
40.57142857142857,0.0077420225284467355
40.68571428571428,0.007970110578365063
40.8,0.008155900855518334
40.91428571428571,0.008229518266867155
41.028571428571425,0.008148224923888522
41.14285714285714,0.007915808845847335
41.25714285714285,0.007582461101227862
41.371428571428574,0.007225250126007696
41.48571428571429,0.006918440620535408
41.6,0.006708244891537658
41.714285714285715,0.0066044879868046805
41.82857142857143,0.006591830177664255
41.94285714285714,0.0066507179304266875
42.05714285714286,0.006771784155061834
42.17142857142857,0.006953026106773867
42.285714285714285,0.007183795381969583
42.4,0.007431778254870643
42.51428571428571,0.007647638734054997
42.628571428571426,0.007787130709659275
42.74285714285714,0.007834875564558377
42.857142857142854,0.00781135000882463
42.97142857142857,0.007757179711293574
43.08571428571428,0.0077059359329807245
43.199999999999996,0.0076647166555111074
43.31428571428571,0.0076153163128568286
43.42857142857143,0.0075333821025618235
43.542857142857144,0.007410396524945907
43.65714285714286,0.007262817766329964
43.77142857142857,0.007123961024268681
43.885714285714286,0.0070274829509950985
44.0,0.00699560782814013
44.114285714285714,0.007037937578629902
44.22857142857143,0.007155795674362919
44.34285714285714,0.007343233841080037
44.457142857142856,0.007582140831163171
44.57142857142857,0.007837989951735867
44.68571428571428,0.008064542687166292
44.8,0.008218145334433083
44.91428571428571,0.008273246241770196
45.028571428571425,0.00822963230039983
45.14285714285714,0.008108765334024149
45.25714285714285,0.007943626516176772
45.37142857142857,0.007767845618231245
45.48571428571429,0.007607385498011472
45.6,0.007476239975280041
45.714285714285715,0.007377267923269885
45.82857142857143,0.0073079309324825936
45.94285714285714,0.00726754499814616
46.05714285714286,0.007260431408976602
46.17142857142857,0.007291239327878776
46.285714285714285,0.00735469560214204
46.4,0.007428122595902784
46.51428571428571,0.007475679008445549
46.628571428571426,0.007465759363663971
46.74285714285714,0.007391492594480086
46.857142857142854,0.007278526741895654
46.97142857142857,0.0071714381921008565
47.08571428571428,0.007106327208842064
47.199999999999996,0.007088919011082431
47.31428571428571,0.0070936951129288005
47.42857142857143,0.007082952446475154
47.542857142857144,0.0070299006759178126
47.65714285714286,0.006929623196608368
47.77142857142857,0.006794543587223215
47.885714285714286,0.0066436251777609815
48.0,0.00649556067814864
48.114285714285714,0.00636742070154773
48.22857142857143,0.0062731347164137665
48.34285714285714,0.006218597366443602
48.457142857142856,0.006197936820914272
48.57142857142857,0.00619831513497991
48.68571428571428,0.006214990705188891
48.8,0.006271394238142524
48.91428571428571,0.006438794448258034
49.028571428571425,0.006854122509723646
49.14285714285714,0.007730612055279317
49.25714285714285,0.00933878444758908
49.37142857142857,0.011921932434132523
49.48571428571429,0.015533251219766252
49.6,0.019853604585535794
49.714285714285715,0.024124175054762324
49.82857142857143,0.027318224743199594
49.94285714285714,0.028536426369751906
50.05714285714286,0.027424103757697126
50.17142857142857,0.02434538509597859
50.285714285714285,0.020195833787105738
50.4,0.015982457928614083
50.51428571428571,0.012437531703121786
50.628571428571426,0.009859932515166878
50.74285714285714,0.008190227889460501
50.857142857142854,0.007192437437827168
50.97142857142857,0.006612032164191717
51.08571428571428,0.00625593816525648
51.199999999999996,0.006008831862916864
51.31428571428571,0.005820348943019298
51.42857142857142,0.005684164383481774
51.542857142857144,0.005613287853497996
51.65714285714286,0.005613159761823961
51.77142857142857,0.0056615352305254656
51.885714285714286,0.005707873056125212
52.0,0.005695940620329933
52.114285714285714,0.005596527753976057
52.22857142857143,0.005427494485233313
52.34285714285714,0.00524619967290324
52.457142857142856,0.0051191927596846536
52.57142857142857,0.005089301789575911
52.68571428571428,0.005159280736437724
52.8,0.005297434218795734
52.91428571428571,0.005456972925914987
53.028571428571425,0.005596388749512338
53.14285714285714,0.005692163109347423
53.25714285714285,0.00574160943868437
53.37142857142857,0.00575818815131986
53.48571428571429,0.005763357792298771
53.6,0.005778565389052666
53.714285714285715,0.0058190841630684
53.82857142857143,0.005889440593336423
53.94285714285714,0.005979956972002744
54.05714285714286,0.006065861893038722
54.17142857142857,0.006112172240159641
54.285714285714285,0.006085924516034767
54.4,0.005971994666711284
54.51428571428571,0.005783738411651562
54.628571428571426,0.005560306588032259
54.74285714285714,0.005350095832696325
54.857142857142854,0.0051895977078547685
54.97142857142857,0.005091153073024769
55.08571428571428,0.005047345109184002
