Frequency,PSD
6.057142857142857,0.06055310936057544
6.171428571428571,0.06098683625306804
6.285714285714286,0.06168097147954305
6.3999999999999995,0.06246933382347445
6.514285714285714,0.06340383079222664
6.628571428571428,0.06482762844265327
6.742857142857143,0.06725525761783153
6.857142857142857,0.07114057236671886
6.9714285714285715,0.0766689919630299
7.085714285714285,0.08365127535324504
7.2,0.09149045487162002
7.314285714285714,0.0991921013420421
7.428571428571428,0.1055250117878121
7.542857142857143,0.10946904553635023
7.657142857142857,0.11079873034591184
7.771428571428571,0.1103356888820543
7.885714285714285,0.10957096301286423
8.0,0.10994041413379103
8.114285714285714,0.11235132017155516
8.228571428571428,0.11723051137349408
8.342857142857143,0.12484709593586545
8.457142857142857,0.13561071282632178
8.571428571428571,0.15041627095169788
8.685714285714285,0.1712038411817296
8.799999999999999,0.20137926350438506
8.914285714285715,0.24524830197372752
9.028571428571428,0.3060716493116613
9.142857142857142,0.38362236668187666
9.257142857142856,0.47298852839315664
9.371428571428572,0.5658423390016927
9.485714285714286,0.6538009629855461
9.6,0.7320276870632967
9.714285714285714,0.8009378472237341
9.828571428571427,0.8649784311739865
9.942857142857143,0.9290756471692675
10.057142857142857,0.9943668601596198
10.17142857142857,1.0550559631511625
10.285714285714285,1.0981346248909964
10.4,1.1070741729262588
10.514285714285714,1.068726256194718
10.628571428571428,0.9802933356804543
10.742857142857142,0.8524580737231657
10.857142857142858,0.7066027696679317
10.971428571428572,0.5672235213787633
11.085714285714285,0.45314701004292623
11.2,0.3717684947088493
11.314285714285713,0.3189239546639599
11.428571428571429,0.2838822146169195
11.542857142857143,0.25611663648512767
11.657142857142857,0.22990368195616037
11.77142857142857,0.20480098981731085
11.885714285714286,0.18305118566711034
12.0,0.16657468978033427
12.114285714285714,0.15551243057441175
12.228571428571428,0.14848126151489197
12.342857142857142,0.14358846159899188
12.457142857142857,0.1393063906693817
12.571428571428571,0.1348499222132528
12.685714285714285,0.13010197752977667
12.799999999999999,0.12530138484689018
12.914285714285715,0.12072849369630936
13.028571428571428,0.11653463147051699
13.142857142857142,0.11272053095902576
13.257142857142856,0.10917807166799125
13.371428571428572,0.10571840538553312
13.485714285714286,0.10207104412129091
13.6,0.09788422971409425
13.714285714285714,0.09277634242640823
13.828571428571427,0.08648624469730937
13.942857142857143,0.07910368207125025
14.057142857142857,0.07123151389461348
14.17142857142857,0.0638830244823742
14.285714285714285,0.0580735911624331
14.4,0.05432536273400435
14.514285714285714,0.05242938759164724
14.628571428571428,0.05166871440280006
14.742857142857142,0.0513720140748183
14.857142857142856,0.051386933124751996
14.971428571428572,0.052099275364264674
15.085714285714285,0.05399032726780453
15.2,0.05710194572700802
15.314285714285713,0.060829269744451
15.428571428571429,0.06416991525406537
15.542857142857143,0.06620705769165487
15.657142857142857,0.06647506249709946
15.77142857142857,0.06501504713390688
15.885714285714284,0.062201906509712496
16.0,0.05855814456933087
16.114285714285714,0.05466177083443563
16.228571428571428,0.051073710832624235
16.34285714285714,0.04819877222187365
16.457142857142856,0.046153478487065795
16.57142857142857,0.04479488045860524
16.685714285714287,0.04392177770368817
16.8,0.04346436023314093
16.914285714285715,0.043481254469448824
17.02857142857143,0.043985025985131966
17.142857142857142,0.04478879865420531
17.257142857142856,0.04553646832788648
17.37142857142857,0.04590070044765436
17.485714285714284,0.04578504483583727
17.599999999999998,0.045367274502819445
17.714285714285715,0.044954690522538907
17.82857142857143,0.0447797270268635
17.942857142857143,0.044912996056117455
18.057142857142857,0.04534927694796392
18.17142857142857,0.04613683926168264
18.285714285714285,0.047378691404891635
18.4,0.0490909772207392
18.514285714285712,0.05107048466669661
18.628571428571426,0.05291942518042431
18.742857142857144,0.05424438582952275
18.857142857142858,0.05491840638435613
18.97142857142857,0.05521653073147593
19.085714285714285,0.05565982211216804
19.2,0.05661696456022845
19.314285714285713,0.05798625284372215
19.428571428571427,0.05926998954734419
19.54285714285714,0.059980122923829586
19.657142857142855,0.05998331562847874
19.771428571428572,0.059490820856773055
19.885714285714286,0.05878470712879569
20.0,0.057996826515175424
20.114285714285714,0.05712088172562564
20.228571428571428,0.05615691174870775
20.34285714285714,0.055175583126686474
20.457142857142856,0.05422531561879916
20.57142857142857,0.05320767618629533
20.685714285714287,0.05189305656323514
20.8,0.05009392420470298
20.914285714285715,0.0478300660227251
21.02857142857143,0.04532081622825825
21.142857142857142,0.0428262779419632
21.257142857142856,0.04050870734498203
21.37142857142857,0.038425258284105694
21.485714285714284,0.03659809894436755
21.599999999999998,0.035056529273046776
21.714285714285715,0.03383280068870293
21.82857142857143,0.03295265530208698
21.942857142857143,0.03241807158079761
22.057142857142857,0.03214890544569755
22.17142857142857,0.03191962475646752
22.285714285714285,0.03139574232165755
22.4,0.03030498222978848
22.514285714285712,0.02862207501369843
22.628571428571426,0.026597218371463414
22.742857142857144,0.024596170176345838
22.857142857142858,0.022895331006531357
22.97142857142857,0.021594688042872394
23.085714285714285,0.020673273586863418
23.2,0.020085579942633915
23.314285714285713,0.019803740248720142
23.428571428571427,0.01980072517464744
23.54285714285714,0.020025282935615576
23.657142857142855,0.02039914494594304
23.771428571428572,0.02082757856819633
23.885714285714286,0.02121106242265399
24.0,0.021463151976971052
24.114285714285714,0.021534052922515007
24.228571428571428,0.021417063468704617
24.34285714285714,0.02112204695204503
24.457142857142856,0.0206428864646515
24.57142857142857,0.01996662097228269
24.685714285714283,0.019126466391366774
24.8,0.0182348712836455
24.914285714285715,0.01743800718831346
25.02857142857143,0.0168213655968866
25.142857142857142,0.01636207351215842
25.257142857142856,0.015975390918756036
25.37142857142857,0.015596387784120501
25.485714285714284,0.015209712894831235
25.599999999999998,0.014819379407140836
25.71428571428571,0.014422124902057831
25.82857142857143,0.014022980171276062
25.942857142857143,0.013662153240689178
26.057142857142857,0.013408609961871045
26.17142857142857,0.013325440745769001
26.285714285714285,0.013446748620540669
26.4,0.01377974145969682
26.514285714285712,0.014304970826677414
26.628571428571426,0.014956363193166802
26.742857142857144,0.015607469198552363
26.857142857142858,0.01610214895443367
26.97142857142857,0.016325362484881863
27.085714285714285,0.016265752598149098
27.2,0.016024226875567794
27.314285714285713,0.01576082221055996
27.428571428571427,0.01560944972552925
27.54285714285714,0.015607700511668647
27.657142857142855,0.015683368251784374
27.771428571428572,0.01571144715691026
27.885714285714286,0.015614097513118241
28.0,0.015442184755511687
28.114285714285714,0.015375544317618275
28.228571428571428,0.015622812321882524
28.34285714285714,0.016271352576940408
28.457142857142856,0.01718453228969146
28.57142857142857,0.0180262794004326
28.685714285714283,0.01841649075075515
28.8,0.0181333996221424
28.914285714285715,0.017238807542227008
29.02857142857143,0.016044654845774664
29.142857142857142,0.01494546093897648
29.257142857142856,0.014231101229612226
29.37142857142857,0.013992543131777
29.485714285714284,0.014149692594967497
29.599999999999998,0.014547608362322427
29.71428571428571,0.015045619573795252
29.82857142857143,0.015556408893147054
29.942857142857143,0.016038359709659347
30.057142857142857,0.01647029838678543
30.17142857142857,0.01683220384203979
30.285714285714285,0.017096504182880168
30.4,0.017228621363023534
30.514285714285712,0.017201289082347034
30.628571428571426,0.017022115479420594
30.74285714285714,0.016755796473768108
30.857142857142858,0.016515528011626538
30.97142857142857,0.01641631320389589
31.085714285714285,0.016513181846421
31.2,0.016765860347118685
31.314285714285713,0.017058495620484827
31.428571428571427,0.017261252558796514
31.54285714285714,0.017287998515262457
31.657142857142855,0.01711866998321411
31.77142857142857,0.016796349488767653
31.885714285714286,0.01641996885422879
32.0,0.01612557873057384
32.114285714285714,0.016037524687597886
32.22857142857143,0.01620456118598887
32.34285714285714,0.0165684683000694
32.457142857142856,0.016993065258633942
32.57142857142857,0.017330314804967734
32.68571428571428,0.017478297592279937
32.8,0.017410446458094066
32.91428571428571,0.017185046334034327
33.028571428571425,0.01694162721378648
33.14285714285714,0.016870163378542857
33.25714285714285,0.017138739969704317
33.371428571428574,0.01779983677245765
33.48571428571429,0.018735715149581323
33.6,0.019697339590215746
33.714285714285715,0.020420578951389975
33.82857142857143,0.020732619224190535
33.94285714285714,0.0205797259168589
34.05714285714286,0.019999936220278583
34.17142857142857,0.01911109489660768
34.285714285714285,0.018124602801495044
34.4,0.017318971798056214
34.51428571428571,0.016932481359663628
34.628571428571426,0.017038258543503656
34.74285714285714,0.017512533452866005
34.857142857142854,0.018130821316233017
34.97142857142857,0.018711673446015625
35.08571428571428,0.019193210436884833
35.199999999999996,0.019594334438239828
35.31428571428572,0.01991059173445181
35.42857142857143,0.02004699549950651
35.542857142857144,0.019856185380912834
35.65714285714286,0.01925128955052644
35.77142857142857,0.01828969569145106
35.885714285714286,0.017155715065431818
36.0,0.016068284928135963
36.114285714285714,0.01519134821888677
36.22857142857143,0.014592437389471906
36.34285714285714,0.014247245145902398
36.457142857142856,0.014076443758490584
36.57142857142857,0.014000570183927332
36.68571428571428,0.01398300317187719
36.8,0.014027963309175922
36.91428571428571,0.014136917053977759
37.028571428571425,0.014270547570303936
37.14285714285714,0.014362037234894444
37.25714285714285,0.014378376859475264
37.371428571428574,0.014377351605980974
37.48571428571429,0.014501638672300851
37.6,0.014895078603959017
37.714285714285715,0.015592853318883198
37.82857142857143,0.016473882517653023
37.94285714285714,0.017324190723219293
38.05714285714286,0.0179654859202499
38.17142857142857,0.01834328206713745
38.285714285714285,0.018507462322631063
38.4,0.018516915832724138
38.51428571428571,0.01836238447469241
38.628571428571426,0.017977306013881977
38.74285714285714,0.017328208167216863
38.857142857142854,0.016510357116522604
38.97142857142857,0.01576360598989073
39.08571428571428,0.015375583615549911
39.199999999999996,0.015526938384086256
39.31428571428571,0.016188506434977018
39.42857142857143,0.017142547246283005
39.542857142857144,0.01809776547008566
39.65714285714286,0.018803605019711817
39.77142857142857,0.019099989997815883
39.885714285714286,0.018913483890437552
40.0,0.01824728132712266
40.114285714285714,0.017188053291779255
40.22857142857143,0.0159083733311927
40.34285714285714,0.014631864590885788
40.457142857142856,0.013563855377397592
40.57142857142857,0.012831741183716175
40.68571428571428,0.012472375408088012
40.8,0.012454336021776011
40.91428571428571,0.012695451696364336
41.028571428571425,0.013065351950213923
41.14285714285714,0.01340282681669508
41.25714285714285,0.013567237136472425
41.371428571428574,0.013494781839013136
41.48571428571429,0.013212551937425833
41.6,0.012802476664709418
41.714285714285715,0.012353124540049531
41.82857142857143,0.011936103952031962
41.94285714285714,0.011607277609665147
42.05714285714286,0.011410048529372035
42.17142857142857,0.011367207750802284
42.285714285714285,0.011468014785379895
42.4,0.011665862613035285
42.51428571428571,0.011895271482549843
42.628571428571426,0.012101303311744587
42.74285714285714,0.012260780120896734
42.857142857142854,0.01237701841879316
42.97142857142857,0.012451320012059973
43.08571428571428,0.012457154565649789
43.199999999999996,0.012343538863526186
43.31428571428571,0.012069618022756785
43.42857142857143,0.011644133242396607
43.542857142857144,0.01113698089704714
43.65714285714286,0.010652921439237234
43.77142857142857,0.010290067588092228
43.885714285714286,0.010115123013308231
44.0,0.010161709179650836
44.114285714285714,0.010428515984427764
44.22857142857143,0.010861259523598529
44.34285714285714,0.011339104501674017
44.457142857142856,0.011700657139684868
44.57142857142857,0.01181223945466891
44.68571428571428,0.011638325319413372
44.8,0.011266519469967007
44.91428571428571,0.010868606100742282
45.028571428571425,0.010616740844849905
45.14285714285714,0.010600155180664787
45.25714285714285,0.010792284043753006
45.37142857142857,0.011089423689781424
45.48571428571429,0.011388614958734321
45.6,0.011639594067273499
45.714285714285715,0.011833404196853565
45.82857142857143,0.011955541918280153
45.94285714285714,0.011963447600815965
46.05714285714286,0.011813016894182661
46.17142857142857,0.011502943840033999
46.285714285714285,0.011093813396792076
46.4,0.01069276754349119
46.51428571428571,0.010422364595413307
46.628571428571426,0.010384902194588432
46.74285714285714,0.010618454065583073
46.857142857142854,0.011054223711924566
46.97142857142857,0.01151371206737932
47.08571428571428,0.011778580354834086
47.199999999999996,0.011708088472925184
47.31428571428571,0.011321334167552264
47.42857142857143,0.010775037950963233
47.542857142857144,0.010252628927719425
47.65714285714286,0.009855329559924266
47.77142857142857,0.009575531941777028
47.885714285714286,0.009350975388522151
48.0,0.009130259164815972
48.114285714285714,0.008890183250338426
48.22857142857143,0.008612405836726008
48.34285714285714,0.00827245287135356
48.457142857142856,0.007869797303133738
48.57142857142857,0.007468135756722394
48.68571428571428,0.007193246214647529
48.8,0.007174842387660706
48.91428571428571,0.007471578787793325
49.028571428571425,0.008034428677848001
49.14285714285714,0.008741827673359522
49.25714285714285,0.009503630894816744
49.37142857142857,0.010386293352289638
49.48571428571429,0.011662215493700239
49.6,0.013677038652381658
49.714285714285715,0.01653077594806939
49.82857142857143,0.019769461781387075
49.94285714285714,0.02240173403255118
50.05714285714286,0.023372886030064835
50.17142857142857,0.022213389824387114
50.285714285714285,0.019346751025366225
50.4,0.015806019293652412
50.51428571428571,0.012623420236264095
50.628571428571426,0.010377302329518208
50.74285714285714,0.009135415517061983
50.857142857142854,0.008671178596718135
50.97142857142857,0.008704124315870065
51.08571428571428,0.009022919132283674
51.199999999999996,0.00949190398495797
51.31428571428571,0.010008312842153495
51.42857142857142,0.010473837839691889
51.542857142857144,0.010803934253171815
51.65714285714286,0.010952917817544023
51.77142857142857,0.010919686709674133
51.885714285714286,0.010728800988579389
52.0,0.01041529583191932
52.114285714285714,0.010033473317402135
52.22857142857143,0.009670981642213564
52.34285714285714,0.00943401164350794
52.457142857142856,0.009399191995280852
52.57142857142857,0.00956458473349387
52.68571428571428,0.009835659895263483
52.8,0.010058655032326093
52.91428571428571,0.010089658959156476
53.028571428571425,0.009868576273545334
53.14285714285714,0.00945306883386
53.25714285714285,0.008980830895344998
53.37142857142857,0.008581051661268553
53.48571428571429,0.008304476258665093
53.6,0.008126214165108255
53.714285714285715,0.00800478374535964
53.82857142857143,0.007931404228525087
53.94285714285714,0.007925362748233841
54.05714285714286,0.00799244446231053
54.17142857142857,0.008098554766075673
54.285714285714285,0.008192172988139141
54.4,0.008260372856853309
54.51428571428571,0.008366813525262827
54.628571428571426,0.00862657368588577
54.74285714285714,0.009120276064882528
54.857142857142854,0.009804215767989902
54.97142857142857,0.010489568359653803
55.08571428571428,0.010922362854492166
