Frequency,PSD
6.0,0.3983837827162129
6.08,0.40415640763990635
6.16,0.4144765371759941
6.24,0.4272318590495976
6.32,0.43998891513291505
6.4,0.4506072302396772
6.48,0.45771526063649864
6.5600000000000005,0.4609198678498091
6.640000000000001,0.46071970389000383
6.72,0.45819459106775123
6.8,0.45461020842819166
6.88,0.4510868504694545
6.96,0.4484322656685013
7.04,0.44715440847958726
7.12,0.4475877353053151
7.2,0.4500230893432717
7.28,0.454745691848955
7.36,0.4619503849710993
7.44,0.4715850039092738
7.5200000000000005,0.48322853335463
7.6000000000000005,0.4961090551868218
7.68,0.5093045860908351
7.76,0.5220763820491963
7.84,0.5342055524140558
7.92,0.5461805618754699
8.0,0.5591296304778135
8.08,0.5744889846191791
8.16,0.5935029189976759
8.24,0.6167201307642753
8.32,0.6436564821912769
8.4,0.6727385720979906
8.48,0.7015496734680254
8.56,0.7273040943989079
8.64,0.7474089464084088
8.72,0.7599533432296673
8.8,0.7639987973226925
8.88,0.759618966445117
8.96,0.7477245927806286
9.040000000000001,0.7297757917746306
9.120000000000001,0.7075016137505894
9.200000000000001,0.6827111708692821
9.28,0.6572133868030133
9.36,0.6328008234984237
9.44,0.6112287720735483
9.52,0.5941421435353554
9.6,0.5829507838493584
9.68,0.5786953037314666
9.76,0.581953975064294
9.84,0.5928144467975878
9.92,0.6108952379727035
10.0,0.635383253745367
10.08,0.6650711408840018
10.16,0.6984176164975628
10.24,0.7336779375495395
10.32,0.7691291534232292
10.4,0.8033484333367145
10.48,0.8354344148273598
10.56,0.8650463680638032
10.64,0.89220208061794
10.72,0.9168978771688302
10.8,0.9387250151935602
10.88,0.9566856294653675
10.96,0.9693316301607702
11.040000000000001,0.9751974038112354
11.120000000000001,0.9733507015951535
11.200000000000001,0.9638220037347751
11.28,0.9477223400377304
11.36,0.926995418543082
11.44,0.9039044099436286
11.52,0.8804566595841066
11.6,0.8579810627293913
11.68,0.8369964457013589
11.76,0.8173840938967909
11.84,0.7987575504159132
11.92,0.7808547591948329
12.0,0.763784690230135
12.08,0.7480352358543617
12.16,0.7342571949318857
12.24,0.7229340503068288
12.32,0.7140901437310578
12.4,0.7071662868164532
12.48,0.7011166826868607
12.56,0.6946894465789686
12.64,0.6867832312416684
12.72,0.6767497699041829
12.8,0.664540898116318
12.88,0.6506632924460805
12.96,0.6359769230481076
13.040000000000001,0.6214248326456027
13.120000000000001,0.6077932117679271
13.200000000000001,0.5955709653715311
13.280000000000001,0.5849248273624994
13.36,0.575757107176518
13.44,0.5677913936614934
13.52,0.5606437478422512
13.6,0.553870779278051
13.68,0.5470176948143367
13.76,0.5396971515341692
13.84,0.5317063965085032
13.92,0.5231484180110547
14.0,0.5144895262398016
14.08,0.5064871347725031
14.16,0.499966443324423
14.24,0.49549656336266723
14.32,0.49307974996251713
14.4,0.49198615203165535
14.48,0.4908254398914439
14.56,0.48785996501076323
14.64,0.481468762885705
14.72,0.4706093380108243
14.8,0.4551214182671972
14.88,0.43577402075927024
14.96,0.4140493095904368
15.040000000000001,0.39174590054291475
15.120000000000001,0.3705366276646515
15.200000000000001,0.3516155903413394
15.280000000000001,0.3355234468060117
15.36,0.32217175101961293
15.44,0.31102400978114936
15.52,0.30135296289314295
15.6,0.29248726018554666
15.68,0.28398114548019
15.76,0.2756758736990917
15.84,0.26765811426341646
15.92,0.2601485346065221
16.0,0.2533681987367174
16.080000000000002,0.24743059704281384
16.16,0.24229436100700635
16.240000000000002,0.23778864957434698
16.32,0.23369521507882077
16.4,0.22984770652408446
16.48,0.2262009696381839
16.56,0.2228372375425253
16.64,0.21990737436486205
16.72,0.21753801618394727
16.8,0.21575135077316127
16.88,0.21443438636241396
16.96,0.21336545556707298
17.04,0.21227551260563587
17.12,0.21090831179242464
17.2,0.20905288608922984
17.28,0.2065451520497118
17.36,0.20325628396547318
17.44,0.19909060945013413
17.52,0.19400369382392724
17.6,0.18803183370966975
17.68,0.18131102787329068
17.76,0.1740652067583977
17.84,0.1665589986259308
17.92,0.1590305612053186
18.0,0.15163376529920583
18.080000000000002,0.14441867051131113
18.16,0.13736407949799548
18.240000000000002,0.13045222536067153
18.32,0.1237538746145747
18.400000000000002,0.1174828258265759
18.48,0.11198767821207302
18.56,0.10767351667040465
18.64,0.10487665659214314
18.72,0.10373811752649549
18.8,0.10412541086569928
18.88,0.10563535191959841
18.96,0.10768032455300885
19.04,0.1096298768805029
19.12,0.11096112292793095
19.2,0.11137129570585123
19.28,0.11082188586188227
19.36,0.10950806627723118
19.44,0.10777002474668776
19.52,0.10597749166795514
19.6,0.1044225706264777
19.68,0.10324991354825525
19.76,0.10244005479996901
19.84,0.10184478734306876
19.92,0.10125711463313973
20.0,0.10048768707789245
20.080000000000002,0.09941927351636382
20.16,0.09802190378021984
20.240000000000002,0.09632968054170014
20.32,0.09439744312161359
20.400000000000002,0.0922629796235501
20.48,0.08993471739175679
20.56,0.08740928173399495
20.64,0.08470657751954101
20.72,0.08190082239186007
20.8,0.07912841307338661
20.88,0.07656555824402311
20.96,0.07438369194156873
21.04,0.07270142929111512
21.12,0.07155352917238292
21.2,0.07088961551720709
21.28,0.07060195483691369
21.36,0.07056841266017731
21.44,0.07068981712954162
21.52,0.07090389819394038
21.6,0.071170028047643
21.68,0.07143485407801352
21.76,0.07160061031621907
21.84,0.07151863522080942
21.92,0.07101885422496193
22.0,0.06996700317413777
22.080000000000002,0.06832501387483428
22.16,0.06618528954097813
22.240000000000002,0.06375956350107953
22.32,0.06132283791385447
22.400000000000002,0.059132691226350245
22.48,0.05735463759924038
22.56,0.05602104485292508
22.64,0.055036835822948896
22.72,0.05422681686690641
22.8,0.053404723629873745
22.88,0.05243810905742967
22.96,0.05128715112086428
23.04,0.050006784521879094
23.12,0.04871550824786166
23.2,0.0475456407157409
23.28,0.04659482752865707
23.36,0.04589590947853623
23.44,0.04541343276336658
23.52,0.04506405230869212
23.6,0.04474947352620455
23.68,0.04438772262723227
23.76,0.04393196927801407
23.84,0.04337345594448926
23.92,0.042732334018951684
24.0,0.0420439352759969
24.080000000000002,0.0413470855152958
24.16,0.04067703563031728
24.240000000000002,0.040061485751984975
24.32,0.039516605279617194
24.400000000000002,0.039041536693169156
24.48,0.038613082881078356
24.560000000000002,0.03818457110775325
24.64,0.03769240448495743
24.72,0.037070558492067446
24.8,0.03626907417074231
24.88,0.03526990510366179
24.96,0.0340939020940842
25.04,0.032796126763869074
25.12,0.031451362902961584
25.2,0.03013539294618622
25.28,0.02890873088418186
25.36,0.02780781296305625
25.44,0.02684520118685374
25.52,0.026016837653702947
25.6,0.025312246035298483
25.68,0.024723394650442185
25.76,0.024249341690064916
25.84,0.02389585147821671
25.92,0.023671004040721356
26.0,0.023578928601178585
26.080000000000002,0.023614100184116225
26.16,0.02375827067761696
26.240000000000002,0.023981213558027605
26.32,0.024245236075868315
26.400000000000002,0.02451217236145973
26.48,0.024750739172110254
26.560000000000002,0.02494204841827769
26.64,0.025081746337708204
26.72,0.025178337328704784
26.8,0.02524824042013367
26.88,0.025308691828470446
26.96,0.025369814467153546
27.04,0.025427361400278944
27.12,0.025458021444871116
27.2,0.025419504308749095
27.28,0.02525723650831563
27.36,0.02491782788455335
27.44,0.024366680636144278
27.52,0.023604361734180093
27.6,0.022675295451810126
27.68,0.02166407768759359
27.76,0.020678972985417023
27.84,0.019827147684237476
27.92,0.019189554552331844
28.0,0.018803498112622087
28.080000000000002,0.0186577966360302
28.16,0.01870068392494833
28.240000000000002,0.018856337901172394
28.32,0.019043837212259485
28.400000000000002,0.01919288756021297
28.48,0.01925310989389739
28.560000000000002,0.01919668696722792
28.64,0.019016399205148846
28.72,0.018721778462709237
28.8,0.01833530320112117
28.88,0.017889004512769473
28.96,0.017420625918185013
29.04,0.01696839202945163
29.12,0.01656453979981927
29.2,0.016229260445701943
29.28,0.01596743998651574
29.36,0.015769844711722485
29.44,0.015618430318241117
29.52,0.01549340255110589
29.6,0.015378821426150078
29.68,0.015264500334572231
29.76,0.015144160099548722
29.84,0.015011928082816064
29.92,0.014860061448807707
30.0,0.014679808057810464
30.080000000000002,0.014465251569533199
30.16,0.014218087934051741
30.240000000000002,0.01395063327666128
30.32,0.013685238928366844
30.400000000000002,0.013450060174092808
30.48,0.013272733886927308
30.560000000000002,0.013174157994583529
30.64,0.013164109551631201
30.72,0.01323939739878479
30.8,0.013384324598315648
30.88,0.013572862102413973
30.96,0.013772064436148026
31.04,0.013946526360076181
31.12,0.014063716947958178
31.2,0.014099699389793188
31.28,0.014044201661573977
31.36,0.013903580689680464
31.44,0.013700279418670174
31.52,0.013468120545665048
31.6,0.013244115186693547
31.68,0.01305892176310558
31.76,0.012928964761695144
31.84,0.012852924252975658
31.92,0.012813766273137477
32.0,0.01278532294338806
32.08,0.012740696191450556
32.160000000000004,0.012659327744627883
32.24,0.012530617869801893
32.32,0.012353838528044774
32.4,0.01213572409012716
32.480000000000004,0.011887723874107518
32.56,0.011624328137397324
32.64,0.011362651625315783
32.72,0.011122365614513673
32.8,0.010924706631392162
32.88,0.010789782769866689
32.96,0.010732405445070894
33.04,0.010757616811867914
33.12,0.01085746473927709
33.2,0.011010240218743512
33.28,0.011182575377364716
33.36,0.011333959867344458
33.44,0.01142273424973677
33.52,0.011412518182545503
33.6,0.011278118390733716
33.68,0.011010013736383798
33.76,0.010616532709908363
33.84,0.010123040617491221
33.92,0.009568029536203514
34.0,0.008996860209169608
34.08,0.00845465122723151
34.160000000000004,0.007980022784259912
34.24,0.007600943859859596
34.32,0.007333065826553175
34.4,0.007180126127025701
34.480000000000004,0.007135631200100679
34.56,0.0071851138557739985
34.64,0.007308568513691783
34.72,0.007482912730509076
34.800000000000004,0.007684377138527772
34.88,0.007890654625913526
34.96,0.008082588177055802
35.04,0.008245228764254897
35.12,0.008368223388366567
35.2,0.008445616611393524
35.28,0.008475213271010668
35.36,0.008457667881063145
35.44,0.008395486654401721
35.52,0.00829217791046247
35.6,0.008151830331320508
35.68,0.007979348330540134
35.76,0.007781351793978062
35.84,0.007567370504836803
35.92,0.007350592272460162
36.0,0.007147314699962675
36.08,0.006974603550388571
36.160000000000004,0.006846443506035803
36.24,0.0067695528085439174
36.32,0.006740536695435356
36.4,0.006745813922876729
36.480000000000004,0.006764775679114367
36.56,0.006775344569370428
36.64,0.006760103084345734
36.72,0.006710923230691207
36.800000000000004,0.006630632696480626
36.88,0.006531380377748391
36.96,0.006430499583579203
37.04,0.006345367283479366
37.12,0.006288835535934905
37.2,0.006266363137138891
37.28,0.006275278372397659
37.36,0.006305961603071245
37.44,0.0063443499601069766
37.52,0.00637506984491745
37.6,0.00638458736155211
37.68,0.006363877930395981
37.76,0.00631017222113992
37.84,0.006227384224145944
37.92,0.006124994473351103
38.0,0.006015521115611192
38.08,0.005911182362235752
38.160000000000004,0.00582071414745004
38.24,0.005747329746667794
38.32,0.005688422489246506
38.4,0.00563697100134495
38.480000000000004,0.005584008119101608
38.56,0.005521234418624234
38.64,0.005442990419403207
38.72,0.005347222665232588
38.800000000000004,0.005235533489339004
38.88,0.0051126651088148276
38.96,0.0049857569573495426
39.04,0.004863519290577822
39.12,0.004755263653076068
39.2,0.004669673789556711
39.28,0.004613331845753996
39.36,0.004589252609877455
39.44,0.004595868883736491
39.52,0.004626916313253157
39.6,0.004672445839561342
39.68,0.004720829217117882
39.76,0.004761276329439547
39.84,0.004786194965284781
39.92,0.004792749462059448
40.0,0.0047831785026371705
40.08,0.0047637409108738735
40.160000000000004,0.004742509239053028
40.24,0.004726571063255495
40.32,0.00471944673326995
40.4,0.004719574134109412
40.480000000000004,0.004720453523718413
40.56,0.004712511080762166
40.64,0.004686107316782249
40.72,0.004634659043317546
40.800000000000004,0.004556786325258964
40.88,0.004456782988657973
40.96,0.004343367449506992
41.04,0.004227295735463161
41.12,0.004118736458961171
41.2,0.00402521642122739
41.28,0.00395055822710693
41.36,0.0038947931895096273
41.44,0.0038547670930737157
41.52,0.0038251345650789585
41.6,0.0037995598426625093
41.68,0.0037720352257351398
41.76,0.0037381898060230264
41.84,0.0036963309671865464
41.92,0.0036478814866963477
42.0,0.0035969675702893613
42.08,0.0035491794329124736
42.160000000000004,0.003509842235193384
42.24,0.0034823358262405174
42.32,0.003466984608859621
42.4,0.003460819840896373
42.480000000000004,0.003458209484490317
42.56,0.003452095758156113
42.64,0.003435470579976844
42.72,0.0034027604055965506
42.800000000000004,0.003350916124284769
42.88,0.0032801178082722017
42.96,0.0031940493818161456
43.04,0.0030996831038158012
43.12,0.0030065025916476426
43.2,0.0029251568717467407
43.28,0.002865695805012525
43.36,0.002835728452421577
43.44,0.0028389565804948485
43.52,0.0028744713754125933
43.6,0.0029369623045512674
43.68,0.0030176854433858723
43.76,0.003105837097890484
43.84,0.00318997987160609
43.92,0.0032593370935512633
44.0,0.0033049551111964583
44.08,0.0033207760971862375
44.160000000000004,0.0033045335529670317
44.24,0.0032582010338900666
44.32,0.0031876777308726626
44.4,0.0031015824435455443
44.480000000000004,0.0030093767566196326
44.56,0.0029193483390579054
44.64,0.002837071195611199
44.72,0.002764776661177545
44.800000000000004,0.002701726855894272
44.88,0.0026453541219953556
44.96,0.00259273987205085
45.04,0.0025419817674512003
45.12,0.002493097874388386
45.2,0.002448283080646258
45.28,0.0024115194225256178
45.36,0.002387705660933841
45.44,0.0023815688281802767
45.52,0.0023966221535306944
45.6,0.002434349766046841
45.68,0.0024936835965974884
45.76,0.002570762728950054
45.84,0.0026589701827102637
45.92,0.002749304810215434
46.0,0.0028311921710606584
46.08,0.0028937903176584276
46.160000000000004,0.0029276836127208397
46.24,0.0029266445599534716
46.32,0.002889000884208383
46.4,0.0028181755498825865
46.480000000000004,0.002722185710652709
46.56,0.002612203875967875
46.64,0.002500560644130012
46.72,0.0023986940044457873
46.800000000000004,0.0023155021442867844
46.88,0.002256391954846282
46.96,0.0022231196133665893
47.04,0.0022143527220643347
47.12,0.002226760096138529
47.2,0.0022563440402015474
47.28,0.0022996681012763497
47.36,0.0023546256144571683
47.44,0.0024204806351476975
47.52,0.002497112420426894
47.6,0.002583673641458426
47.68,0.0026771393089399832
47.76,0.0027713603945049396
47.84,0.0028571543092493525
47.92,0.002923652956303615
48.0,0.0029606754863206568
48.08,0.002961461648416947
48.160000000000004,0.002924874936865215
48.24,0.002856282829558302
48.32,0.002766735156804201
48.4,0.0026706371398386997
48.480000000000004,0.0025826127976508184
48.56,0.0025144718660465026
48.64,0.002473064876162539
48.72,0.0024594415410966915
48.800000000000004,0.0024693158461435577
48.88,0.0024945521381320584
48.96,0.002525262720581428
49.04,0.0025520816663443524
49.120000000000005,0.002568168830714857
49.2,0.0025704959332633996
49.28,0.002560052046158192
49.36,0.002540859487727646
49.44,0.002518089703410723
49.52,0.0024959519089417202
49.6,0.0024761769797889896
49.68,0.002457703134661378
49.76,0.0024376489098382886
49.84,0.002413075466524625
49.92,0.0023826901043353527
50.0,0.0023477054900366418
50.08,0.0023115045531196463
50.160000000000004,0.002278335360938917
50.24,0.002251681528874297
50.32,0.0022330319517298997
50.4,0.002221511380363639
50.480000000000004,0.0022144014586425453
50.56,0.0022082084455730087
50.64,0.002199779785780707
50.72,0.002187061583178874
50.800000000000004,0.0021693257392898894
50.88,0.0021469355898181414
50.96,0.0021208572508511075
51.04,0.0020921386061571127
51.120000000000005,0.00206151571384274
51.2,0.0020292300904273686
51.28,0.0019950813184161763
51.36,0.001958690472542001
51.44,0.0019198945588588985
51.52,0.0018791371834449982
51.6,0.001837698083976061
51.68,0.0017976433098560243
51.76,0.001761475780746001
51.84,0.0017315838491335951
51.92,0.0017096712659859896
52.0,0.001696367856464558
52.08,0.0016911572927053985
52.160000000000004,0.0016926371043850513
52.24,0.0016989908341338584
52.32,0.0017084601043548808
52.4,0.0017196038964835403
52.480000000000004,0.0017312359506734508
52.56,0.0017420984922796902
52.64,0.001750480708329399
52.72,0.0017540430162576396
52.800000000000004,0.0017500287855562024
52.88,0.0017358672412462906
52.96,0.001709979504660392
53.04,0.0016724853717403534
53.120000000000005,0.0016255231343093469
53.2,0.001573028245276135
53.28,0.0015200074430811623
53.36,0.0014715139677397814
53.44,0.0014316160366561591
53.52,0.0014026340905237428
53.6,0.001384822809680883
53.68,0.0013765377077147893
53.76,0.0013748026101198974
53.84,0.0013761160017687168
53.92,0.001377307720173812
54.0,0.0013762695879229237
54.08,0.0013724172451789053
54.160000000000004,0.0013667883725513729
54.24,0.0013617478050880166
54.32,0.0013603539872264242
54.4,0.0013655297438213245
54.480000000000004,0.0013792430737767961
54.56,0.0014019092144636626
54.64,0.0014321627062901653
54.72,0.0014670385855493203
54.800000000000004,0.0015024890612573708
54.88,0.0015340887667574302
54.96,0.0015577666650664842
55.04,0.0015704347871829671
