Frequency,PSD
6.0,0.5189006241226041
6.08,0.5186459238742016
6.16,0.5178187439970556
6.24,0.5159142640040721
6.32,0.5124553324894445
6.4,0.5072145261881682
6.48,0.5003643054064081
6.5600000000000005,0.49250077333938763
6.640000000000001,0.4845293756667687
6.72,0.47744688315052153
6.8,0.47208784660022035
6.88,0.4689143440571716
6.96,0.4679119815094176
7.04,0.4686188041550949
7.12,0.47027082648768126
7.2,0.4720146145744831
7.28,0.4731251927005221
7.36,0.47317741196029484
7.44,0.4721412902977369
7.5200000000000005,0.47039327959231725
7.6000000000000005,0.46864750129335875
7.68,0.46781526711020116
7.76,0.46880643860364285
7.84,0.4722997712527176
7.92,0.4785293954836538
8.0,0.48714880523666537
8.08,0.4972272240103353
8.16,0.507399608170451
8.24,0.5161400867729242
8.32,0.5220815507797849
8.4,0.5242848318256497
8.48,0.5223803723983118
8.56,0.5165550669207748
8.64,0.5074138962331488
8.72,0.4957850865434028
8.8,0.48254466574276766
8.88,0.4685132995549398
8.96,0.4544390249690484
9.040000000000001,0.4410412950265856
9.120000000000001,0.4290680861770724
9.200000000000001,0.4193150426764478
9.28,0.41257298024971345
9.36,0.40950104280693445
9.44,0.41045695916179764
9.52,0.41534125879030215
9.6,0.4235188661573066
9.68,0.4338644150221533
9.76,0.4449400421332067
9.84,0.4552678721375619
9.92,0.46362117656451585
10.0,0.4692452511345449
10.08,0.4719401620072908
10.16,0.47198717794583067
10.24,0.46995932620739356
10.32,0.4664982739358263
10.4,0.46214523385984246
10.48,0.4572803344807453
10.56,0.45216935788099405
10.64,0.4470662188393343
10.72,0.44229808417336786
10.8,0.43827628302703897
10.88,0.4354197664250226
10.96,0.43402574607367067
11.040000000000001,0.43415073896940815
11.120000000000001,0.4355619950814546
11.200000000000001,0.4377875851358553
11.28,0.44024960758107085
11.36,0.4424297011611915
11.44,0.4440046744545914
11.52,0.4449062075357188
11.6,0.4452932872034357
11.68,0.44546244397946017
11.76,0.44574219843962226
11.84,0.44641553359823644
11.92,0.4476908122111589
12.0,0.44971079028473254
12.08,0.4525681723962913
12.16,0.456296153068123
12.24,0.4608235883339211
12.32,0.4659147434533875
12.4,0.4711349053481877
12.48,0.4758814057506584
12.56,0.47949298439112653
12.64,0.48141139123360965
12.72,0.48133816590523315
12.8,0.47932393911605853
12.88,0.4757517088261125
12.96,0.47121813741248
13.040000000000001,0.46635733160553894
13.120000000000001,0.4616708676120984
13.200000000000001,0.45741867291022686
13.280000000000001,0.4535952120737098
13.36,0.44998137981774056
13.44,0.446241117443544
13.52,0.44202959971304834
13.6,0.43709084348684235
13.68,0.4313340009346372
13.76,0.42488023139418046
13.84,0.4180673761097628
13.92,0.4113981126892112
14.0,0.4054287928010415
14.08,0.40062052652835023
14.16,0.3971987785749778
14.24,0.3950757843700885
14.32,0.3938720330488721
14.4,0.3930345624968907
14.48,0.3920091927161772
14.56,0.39040138001032443
14.64,0.38806677682320834
14.72,0.38510375144600545
14.8,0.38176084486650047
14.88,0.37830477605709356
14.96,0.3749069139804806
15.040000000000001,0.37159470952879436
15.120000000000001,0.36828445568250984
15.200000000000001,0.3648744719960228
15.280000000000001,0.3613486883600436
15.36,0.35783376938086997
15.44,0.3545742430265556
15.52,0.35183157898568784
15.6,0.34975435584387565
15.68,0.34828487790602203
15.76,0.34715162386976556
15.84,0.34595469642003496
15.92,0.3443058773256913
16.0,0.34196002780927404
16.080000000000002,0.3388817329086288
16.16,0.3352237363941981
16.240000000000002,0.33123326936221476
16.32,0.3271298522549936
16.4,0.3230038148341584
16.48,0.318770836335986
16.56,0.31419424912627125
16.64,0.30896444807640816
16.72,0.3028098439745575
16.8,0.2956073780203759
16.88,0.28746100236544436
16.96,0.2787227000767915
17.04,0.26994309181320764
17.12,0.2617573809625915
17.2,0.2547336820812306
17.28,0.24922696963970956
17.36,0.24528465088553292
17.44,0.242635484451114
17.52,0.24076661331440294
17.6,0.23906472177971766
17.68,0.23697845364446357
17.76,0.23415662639809254
17.84,0.2305288387958451
17.92,0.2263143656114372
18.0,0.22196356073088327
18.080000000000002,0.21804867509266324
18.16,0.21512785234065557
18.240000000000002,0.21360915677601644
18.32,0.21364209357718766
18.400000000000002,0.2150613421798064
18.48,0.21739940443390918
18.56,0.21997081665592544
18.64,0.22201257160312887
18.72,0.22284836955605491
18.8,0.22203446299965757
18.88,0.21944715014296184
18.96,0.2152876254395305
19.04,0.2100048765366257
19.12,0.20416301592127134
19.2,0.19829590897428317
19.28,0.19279259758394976
19.36,0.18784210514098398
19.44,0.18344301363933535
19.52,0.17946217822536176
19.6,0.17571615650706518
19.68,0.1720501129629124
19.76,0.16839755377480045
19.84,0.16481320261065815
19.92,0.16147600574481336
20.0,0.1586601747032186
20.080000000000002,0.15667386120735066
20.16,0.15577189977227557
20.240000000000002,0.15606105969306508
20.32,0.15742773258644704
20.400000000000002,0.15952035093655073
20.48,0.16180609835847112
20.56,0.16369518974884373
20.64,0.1646963171182522
20.72,0.16454832043202192
20.8,0.16327700582697888
20.88,0.1611533075874706
20.96,0.15856863722021391
21.04,0.15587721979526242
21.12,0.15326773872620633
21.2,0.15071249186874908
21.28,0.14800908905067656
21.36,0.1448931145051769
21.44,0.14117540319262206
21.52,0.13685267576631335
21.6,0.13215405443455458
21.68,0.1275106675764814
21.76,0.12346131064488079
21.84,0.12052574864228718
21.92,0.11908397068009868
22.0,0.11929379679787315
22.080000000000002,0.12106385272078429
22.16,0.12408028198545115
22.240000000000002,0.12787084397049495
22.32,0.13188436159249173
22.400000000000002,0.1355673049228288
22.48,0.13842823681995836
22.56,0.14008842292886434
22.64,0.1403187989431445
22.72,0.139060347351395
22.8,0.13642161935413175
22.88,0.1326487704517773
22.96,0.12807127958325074
23.04,0.12303657153041235
23.12,0.11785266038102188
23.2,0.11275533112811076
23.28,0.10790603880149968
23.36,0.1034139804670034
23.44,0.09936712657159871
23.52,0.09585604584916443
23.6,0.09298031318744152
23.68,0.09083611840277384
23.76,0.08949102493565397
23.84,0.08895533980505195
23.92,0.08915946603165054
24.0,0.08994444560586219
24.080000000000002,0.09106992374893255
24.16,0.09224032411712989
24.240000000000002,0.09314611092157818
24.32,0.09351313688452317
24.400000000000002,0.09315042130182109
24.48,0.09198635829185245
24.560000000000002,0.09008540972547188
24.64,0.08764083575319383
24.72,0.08494288892413714
24.8,0.0823258973603481
24.88,0.08010221344501302
24.96,0.07849595724248928
25.04,0.07759302836800455
25.12,0.0773230129084939
25.2,0.07748136562599142
25.28,0.07778780581789758
25.36,0.07796395925844547
25.44,0.07780589893812317
25.52,0.07722915849054326
25.6,0.07627428888648943
25.68,0.07507532268331035
25.76,0.07380550947469625
25.84,0.0726200957227269
25.92,0.07161385934049266
26.0,0.07080368987151515
26.080000000000002,0.07013721738016887
26.16,0.06952059385253267
26.240000000000002,0.06885414088960089
26.32,0.06806440855144605
26.400000000000002,0.06712457491796958
26.48,0.06606026515907287
26.560000000000002,0.06494252123714797
26.64,0.06387209213198981
26.72,0.06295916338133276
26.8,0.062301358116622504
26.88,0.06196214043175562
26.96,0.06195257563150692
27.04,0.062220966774539574
27.12,0.06265521011747127
27.2,0.06310023262519612
27.28,0.06338794541128968
27.36,0.06337213774000905
27.44,0.06295852142370709
27.52,0.06212205752781569
27.6,0.060908591930300605
27.68,0.05942288403488595
27.76,0.05780788669678759
27.84,0.05622011791368287
27.92,0.054804580775825236
28.0,0.05367185820751469
28.080000000000002,0.05288052105095567
28.16,0.05242893224111155
28.240000000000002,0.05226013188331227
28.32,0.05228062219869856
28.400000000000002,0.05238911866552798
28.48,0.05250685325738622
28.560000000000002,0.052599326844276685
28.64,0.05268186709890307
28.72,0.05280725354204405
28.8,0.05304051883151215
28.88,0.05343077225784657
28.96,0.05399045663160949
29.04,0.054688768993052944
29.12,0.05545991134804498
29.2,0.056221175529009126
29.28,0.05689292098264817
29.36,0.05741309633285374
29.44,0.057742259867697925
29.52,0.057859290911419566
29.6,0.05775142970930382
29.68,0.05740395635751905
29.76,0.0567945428596939
29.84,0.05589538806992241
29.92,0.054683211239640726
30.0,0.05315386234973906
30.080000000000002,0.051335889355297974
30.16,0.04929709050524479
30.240000000000002,0.047140365601967
30.32,0.04498925911789257
30.400000000000002,0.04296757436107197
30.48,0.0411794095090692
30.560000000000002,0.039695135722965305
30.64,0.03854597034736014
30.72,0.03772659439733143
30.8,0.03720321956803277
30.88,0.03692410445729559
30.96,0.036830207228525064
31.04,0.03686451496553167
31.12,0.03697902814906438
31.2,0.03713848564404509
31.28,0.037320202841939216
31.36,0.037510253464109494
31.44,0.03769749095764328
31.52,0.03786788658133087
31.6,0.03800162758291244
31.68,0.03807419508400441
31.76,0.0380608244538712
31.84,0.03794234070484299
31.92,0.03771007058420958
32.0,0.03736832084842854
32.08,0.03693410177067869
32.160000000000004,0.03643462623238466
32.24,0.03590335744796525
32.32,0.03537527964409149
32.4,0.03488203970757169
32.480000000000004,0.03444776886786281
32.56,0.03408647662884161
32.64,0.03380160323835686
32.72,0.033587659020115956
32.8,0.03343328839266936
32.88,0.03332498188955418
32.96,0.03325097430352005
33.04,0.033205090541854804
33.12,0.03318994052863859
33.2,0.03321804777158657
33.28,0.03330905513558737
33.36,0.0334820073091461
33.44,0.03374399616858204
33.52,0.03407912135141563
33.6,0.03444303241043404
33.68,0.034767009909935184
33.76,0.034971791875034124
33.84,0.03498690114362112
33.92,0.03476845142733115
34.0,0.03430889162560646
34.08,0.03363569247473423
34.160000000000004,0.03280069864123559
34.24,0.031865322201569624
34.32,0.0308873909548695
34.4,0.02991343585125549
34.480000000000004,0.028977042002573953
34.56,0.028101401900877114
34.64,0.027303373387502182
34.72,0.026596944425980148
34.800000000000004,0.025995117221546685
34.88,0.025510032876520414
34.96,0.025151477998865863
35.04,0.024924086299253377
35.12,0.024823930215015572
35.2,0.024835740079891495
35.28,0.024932240535735978
35.36,0.025076614085527273
35.44,0.025227904828153354
35.52,0.02534783188444247
35.6,0.02540676829192059
35.68,0.025387002179241287
35.76,0.02528263049053252
35.84,0.02509683410880701
35.92,0.024838117572548692
36.0,0.024517070442056706
36.08,0.024144562581234166
36.160000000000004,0.02373152590315837
36.24,0.023289968727835578
36.32,0.02283464936720502
36.4,0.02238472006291622
36.480000000000004,0.021964522191125598
36.56,0.021602682085103058
36.64,0.02132897176702684
36.72,0.021169168606713567
36.800000000000004,0.02113913683321193
36.88,0.02124004328377916
36.96,0.021456522054722118
37.04,0.02175861661282216
37.12,0.02210687812601687
37.2,0.02245883493131417
37.28,0.02277480327479313
37.36,0.023021789837312054
37.44,0.02317552072513834
37.52,0.023221579501949585
37.6,0.023156635995241752
37.68,0.022989839156528434
37.76,0.022743323333442672
37.84,0.022450323223861
37.92,0.022150074219895226
38.0,0.02188019613350292
38.08,0.02166873433534536
38.160000000000004,0.021528555918366513
38.24,0.02145601413483013
38.32,0.0214341023648447
38.4,0.021438601871336067
38.480000000000004,0.021444810960794862
38.56,0.02143265112855569
38.64,0.021389012110216186
38.72,0.021307527239793487
38.800000000000004,0.021187016729847463
38.88,0.021030323326592416
38.96,0.02084514565664648
39.04,0.020647756058461874
39.12,0.020469155388161422
39.2,0.020361383290396568
39.28,0.020399895386405128
39.36,0.020677176087141574
39.44,0.02128426936318586
39.52,0.02228121601088446
39.6,0.023663514120740373
39.68,0.02533699066184761
39.76,0.027114472818329776
39.84,0.028742203066847764
39.92,0.02995301453428556
40.0,0.03053133856832843
40.08,0.030368194898990696
40.160000000000004,0.02948661159043171
40.24,0.028029009246775954
40.32,0.026212796619241373
40.4,0.024271714001919256
40.480000000000004,0.022403402609634717
40.56,0.020738002465599814
40.64,0.019332225506868795
40.72,0.018183685974725864
40.800000000000004,0.017255084537566634
40.88,0.01649791273501377
40.96,0.015868989548618415
41.04,0.01533782098270966
41.12,0.01488648030163504
41.2,0.014505527782524372
41.28,0.014189458063621286
41.36,0.01393386966676415
41.44,0.013734809152379053
41.52,0.013589345363758153
41.6,0.013495917472099179
41.68,0.013453462695827059
41.76,0.013459368951373157
41.84,0.013507248052649027
41.92,0.013585829768118672
42.0,0.01367980131094096
42.08,0.01377248748451419
42.160000000000004,0.013849423465197479
42.24,0.013901521837290653
42.32,0.013926753094855408
42.4,0.01392983968982236
42.480000000000004,0.013920122886014697
42.56,0.013908290765170302
42.64,0.013902942388613494
42.72,0.013907941910121669
42.800000000000004,0.01392117332539083
42.88,0.013934753754750971
42.96,0.013936266700732974
43.04,0.013910426292056124
43.12,0.013840860347294837
43.2,0.013712151911745678
43.28,0.013512467377860722
43.36,0.013236749933559794
43.44,0.012889730333898643
43.52,0.012487437368912382
43.6,0.01205600819975298
43.68,0.0116275206677931
43.76,0.011233876846195355
43.84,0.010900757326053707
43.92,0.010643783452238794
44.0,0.010468171277105021
44.08,0.010371718707072892
44.160000000000004,0.010349581185773466
44.24,0.010398566663345193
44.32,0.010518934874807267
44.4,0.010712822545417425
44.480000000000004,0.010979952045956521
44.56,0.01131253819792415
44.64,0.011691721088980091
44.72,0.012087254334193177
44.800000000000004,0.012460886613851344
44.88,0.012772509062994727
44.96,0.012987273357665304
45.04,0.013081754923067127
45.12,0.013047710265956854
45.2,0.0128927373702953
45.28,0.012637916848216007
45.36,0.012313155345747579
45.44,0.011951421397399502
45.52,0.011583288496217776
45.6,0.011233076033375245
45.68,0.0109173564602375
45.76,0.010645788672194335
45.84,0.0104234290538671
45.92,0.010253206169987972
46.0,0.010137343663776926
46.08,0.010077145047478458
46.160000000000004,0.010071424795717616
46.24,0.010114574147024585
46.32,0.010195460904183513
46.4,0.010297995165559817
46.480000000000004,0.010403438293765475
46.56,0.010493754662105961
46.64,0.01055485985150359
46.72,0.010578684243440755
46.800000000000004,0.010563480410717297
46.88,0.01051249703042519
46.96,0.010431711084733213
47.04,0.010327541724387719
47.12,0.010205327296702975
47.2,0.010068950396375127
47.28,0.009921531211879615
47.36,0.009766743666804294
47.44,0.00961014073662985
47.52,0.009459926238359374
47.6,0.009326831099305787
47.68,0.009223040283584463
47.76,0.009160357593949939
47.84,0.009147923832333975
47.92,0.009189843790800047
48.0,0.009283116216260105
48.08,0.009416353334236096
48.160000000000004,0.009569860130935956
48.24,0.009717553347540625
48.32,0.009830801993373304
48.4,0.009883617509035183
48.480000000000004,0.009857988383141641
48.56,0.009747899865553966
48.64,0.009560915095455456
48.72,0.009317029727457567
48.800000000000004,0.00904549453050199
48.88,0.008781000520562202
48.96,0.008560734834007844
49.04,0.008423263052324331
49.120000000000005,0.008409116736122118
49.2,0.00856169269411798
49.28,0.00892609400966909
49.36,0.009543444749100854
49.44,0.010439460024773695
49.52,0.011608664299832816
49.6,0.012998870844271489
49.68,0.014502861046558867
49.76,0.015963942189983336
49.84,0.017198336313108208
49.92,0.01803099488855809
50.0,0.018335069591044577
50.08,0.018062191802729707
50.160000000000004,0.017253004823998178
50.24,0.016024456275275326
50.32,0.014538980487093008
50.4,0.012966790874091106
50.480000000000004,0.011453431720099263
50.56,0.010100723844085812
50.64,0.008962905116142667
50.72,0.00805435170372782
50.800000000000004,0.007362786941323661
50.88,0.006862416121854939
50.96,0.0065236582254497855
51.04,0.006318533087242501
51.120000000000005,0.006222378398325823
51.2,0.006213270928282465
51.28,0.0062705975327032384
51.36,0.006373963972932705
51.44,0.006503179423927334
51.52,0.006639460753035337
51.6,0.006767374638680162
51.68,0.006876596774994075
51.76,0.0069625402966288705
51.84,0.0070253567535775215
51.92,0.007067561914229992
52.0,0.007091221696685691
52.08,0.007095893545339001
52.160000000000004,0.007078206550595904
52.24,0.007033227228981061
52.32,0.006956962699834184
52.4,0.006848883774138673
52.480000000000004,0.006713409137528228
52.56,0.006559804699195759
52.64,0.006400630964918676
52.72,0.006249383544568014
52.800000000000004,0.006118118740180505
52.88,0.006015656734821421
52.96,0.005946598049520308
53.04,0.005911095011672551
53.120000000000005,0.005905208100865948
53.2,0.005921719266679297
53.28,0.005951350515570769
53.36,0.00598433442345466
53.44,0.00601217265401697
53.52,0.006029256047136423
53.6,0.006033907649587492
53.68,0.006028440776632165
53.76,0.006018039419938919
53.84,0.006008635800309457
53.92,0.006004369144338266
54.0,0.006005494928431922
54.08,0.006007611888714168
54.160000000000004,0.00600270727539369
54.24,0.005981864023772477
54.32,0.0059387598442306
54.4,0.005872630413901108
54.480000000000004,0.0057894200543467285
54.56,0.00570046084605108
54.64,0.005619004943254639
54.72,0.005555883371250183
54.800000000000004,0.005516038661908388
54.88,0.0054974089162971775
54.96,0.005492682058977941
55.04,0.005493183810258324
